    Er (keV)         SM dN/dE         BG dN/dE        BSM dN/dE (events/kg/day/keV)
    1.00100e-01      6.45270e+01      1.00000e+02      9.66995e+01
    1.01247e-01      6.38940e+01      1.00000e+02      9.51145e+01
    1.02408e-01      6.32537e+01      1.00000e+02      9.35113e+01
    1.03582e-01      6.26061e+01      1.00000e+02      9.18897e+01
    1.04769e-01      6.19510e+01      1.00000e+02      9.02495e+01
    1.05970e-01      6.12884e+01      1.00000e+02      8.85904e+01
    1.07184e-01      6.06182e+01      1.00000e+02      8.69124e+01
    1.08413e-01      5.99404e+01      1.00000e+02      8.52151e+01
    1.09655e-01      5.92547e+01      1.00000e+02      8.34983e+01
    1.10912e-01      5.85612e+01      1.00000e+02      8.17618e+01
    1.12184e-01      5.78597e+01      1.00000e+02      8.00054e+01
    1.13470e-01      5.71502e+01      1.00000e+02      7.82289e+01
    1.14770e-01      5.64326e+01      1.00000e+02      7.64319e+01
    1.16086e-01      5.57067e+01      1.00000e+02      7.46144e+01
    1.17417e-01      5.49725e+01      1.00000e+02      7.27760e+01
    1.18763e-01      5.42298e+01      1.00000e+02      7.09165e+01
    1.20124e-01      5.34787e+01      1.00000e+02      6.90356e+01
    1.21501e-01      5.27189e+01      1.00000e+02      6.71332e+01
    1.22894e-01      5.19504e+01      1.00000e+02      6.52090e+01
    1.24303e-01      5.11731e+01      1.00000e+02      6.32627e+01
    1.25728e-01      5.04249e+01      1.00000e+02      6.14398e+01
    1.27169e-01      4.98824e+01      1.00000e+02      6.04155e+01
    1.28627e-01      4.93336e+01      1.00000e+02      5.93794e+01
    1.30101e-01      4.87785e+01      1.00000e+02      5.83314e+01
    1.31593e-01      4.82170e+01      1.00000e+02      5.72714e+01
    1.33101e-01      4.76491e+01      1.00000e+02      5.61992e+01
    1.34627e-01      4.70747e+01      1.00000e+02      5.51148e+01
    1.36171e-01      4.64936e+01      1.00000e+02      5.40179e+01
    1.37732e-01      4.59060e+01      1.00000e+02      5.29084e+01
    1.39311e-01      4.53115e+01      1.00000e+02      5.17862e+01
    1.40908e-01      4.47103e+01      1.00000e+02      5.06511e+01
    1.42523e-01      4.41021e+01      1.00000e+02      4.95030e+01
    1.44157e-01      4.34870e+01      1.00000e+02      4.83417e+01
    1.45810e-01      4.28648e+01      1.00000e+02      4.71671e+01
    1.47482e-01      4.22355e+01      1.00000e+02      4.59790e+01
    1.49173e-01      4.15990e+01      1.00000e+02      4.47772e+01
    1.50883e-01      4.09552e+01      1.00000e+02      4.35617e+01
    1.52613e-01      4.03039e+01      1.00000e+02      4.23323e+01
    1.54363e-01      3.96452e+01      1.00000e+02      4.10887e+01
    1.56133e-01      3.89908e+01      1.00000e+02      3.98667e+01
    1.57923e-01      3.85061e+01      1.00000e+02      3.91649e+01
    1.59733e-01      3.80159e+01      1.00000e+02      3.84552e+01
    1.61565e-01      3.75200e+01      1.00000e+02      3.77372e+01
    1.63417e-01      3.70184e+01      1.00000e+02      3.70111e+01
    1.65291e-01      3.65111e+01      1.00000e+02      3.62766e+01
    1.67186e-01      3.59979e+01      1.00000e+02      3.55337e+01
    1.69103e-01      3.54789e+01      1.00000e+02      3.47822e+01
    1.71042e-01      3.49539e+01      1.00000e+02      3.40222e+01
    1.73003e-01      3.44229e+01      1.00000e+02      3.32534e+01
    1.74987e-01      3.38858e+01      1.00000e+02      3.24758e+01
    1.76994e-01      3.33425e+01      1.00000e+02      3.16892e+01
    1.79023e-01      3.27930e+01      1.00000e+02      3.08937e+01
    1.81076e-01      3.22372e+01      1.00000e+02      3.00890e+01
    1.83152e-01      3.16750e+01      1.00000e+02      2.92751e+01
    1.85252e-01      3.11064e+01      1.00000e+02      2.84518e+01
    1.87377e-01      3.05894e+01      1.00000e+02      2.77487e+01
    1.89525e-01      3.01553e+01      1.00000e+02      2.72355e+01
    1.91698e-01      2.97163e+01      1.00000e+02      2.67163e+01
    1.93897e-01      2.92723e+01      1.00000e+02      2.61913e+01
    1.96120e-01      2.88231e+01      1.00000e+02      2.56602e+01
    1.98369e-01      2.83688e+01      1.00000e+02      2.51230e+01
    2.00644e-01      2.79093e+01      1.00000e+02      2.45796e+01
    2.02944e-01      2.74445e+01      1.00000e+02      2.40301e+01
    2.05272e-01      2.69744e+01      1.00000e+02      2.34742e+01
    2.07626e-01      2.64988e+01      1.00000e+02      2.29119e+01
    2.10006e-01      2.60179e+01      1.00000e+02      2.23432e+01
    2.12415e-01      2.55314e+01      1.00000e+02      2.17679e+01
    2.14851e-01      2.50393e+01      1.00000e+02      2.11861e+01
    2.17314e-01      2.45548e+01      1.00000e+02      2.06202e+01
    2.19806e-01      2.41717e+01      1.00000e+02      2.02308e+01
    2.22327e-01      2.37841e+01      1.00000e+02      1.98370e+01
    2.24877e-01      2.33922e+01      1.00000e+02      1.94386e+01
    2.27455e-01      2.29957e+01      1.00000e+02      1.90357e+01
    2.30064e-01      2.25947e+01      1.00000e+02      1.86281e+01
    2.32702e-01      2.21891e+01      1.00000e+02      1.82159e+01
    2.35371e-01      2.17788e+01      1.00000e+02      1.77990e+01
    2.38070e-01      2.13639e+01      1.00000e+02      1.73772e+01
    2.40800e-01      2.09441e+01      1.00000e+02      1.69506e+01
    2.43562e-01      2.05196e+01      1.00000e+02      1.65192e+01
    2.46355e-01      2.00902e+01      1.00000e+02      1.60828e+01
    2.49180e-01      1.97097e+01      1.00000e+02      1.57203e+01
    2.52038e-01      1.93647e+01      1.00000e+02      1.54124e+01
    2.54928e-01      1.90158e+01      1.00000e+02      1.51009e+01
    2.57852e-01      1.86629e+01      1.00000e+02      1.47858e+01
    2.60809e-01      1.83059e+01      1.00000e+02      1.44672e+01
    2.63800e-01      1.79449e+01      1.00000e+02      1.41449e+01
    2.66826e-01      1.75797e+01      1.00000e+02      1.38188e+01
    2.69886e-01      1.72103e+01      1.00000e+02      1.34891e+01
    2.72981e-01      1.68367e+01      1.00000e+02      1.31555e+01
    2.76112e-01      1.64588e+01      1.00000e+02      1.28181e+01
    2.79278e-01      1.61082e+01      1.00000e+02      1.25138e+01
    2.82481e-01      1.58048e+01      1.00000e+02      1.22657e+01
    2.85721e-01      1.54979e+01      1.00000e+02      1.20148e+01
    2.88998e-01      1.51875e+01      1.00000e+02      1.17610e+01
    2.92313e-01      1.48736e+01      1.00000e+02      1.15043e+01
    2.95665e-01      1.45560e+01      1.00000e+02      1.12447e+01
    2.99056e-01      1.42348e+01      1.00000e+02      1.09820e+01
    3.02486e-01      1.39100e+01      1.00000e+02      1.07164e+01
    3.05955e-01      1.35813e+01      1.00000e+02      1.04477e+01
    3.09464e-01      1.32663e+01      1.00000e+02      1.01937e+01
    3.13013e-01      1.29991e+01      1.00000e+02      9.98953e+00
    3.16603e-01      1.27287e+01      1.00000e+02      9.78299e+00
    3.20235e-01      1.24553e+01      1.00000e+02      9.57409e+00
    3.23908e-01      1.21788e+01      1.00000e+02      9.36279e+00
    3.27623e-01      1.18990e+01      1.00000e+02      9.14907e+00
    3.31380e-01      1.16161e+01      1.00000e+02      8.93289e+00
    3.35181e-01      1.13299e+01      1.00000e+02      8.71424e+00
    3.39025e-01      1.10404e+01      1.00000e+02      8.49307e+00
    3.42914e-01      1.08042e+01      1.00000e+02      8.32161e+00
    3.46847e-01      1.05660e+01      1.00000e+02      8.14896e+00
    3.50825e-01      1.03252e+01      1.00000e+02      7.97433e+00
    3.54849e-01      1.00815e+01      1.00000e+02      7.79770e+00
    3.58919e-01      9.83512e+00      1.00000e+02      7.61904e+00
    3.63035e-01      9.58587e+00      1.00000e+02      7.43833e+00
    3.67199e-01      9.33376e+00      1.00000e+02      7.25554e+00
    3.71411e-01      9.09961e+00      1.00000e+02      7.08820e+00
    3.75671e-01      8.89051e+00      1.00000e+02      6.94225e+00
    3.79980e-01      8.67900e+00      1.00000e+02      6.79463e+00
    3.84338e-01      8.46508e+00      1.00000e+02      6.64532e+00
    3.88747e-01      8.24869e+00      1.00000e+02      6.49429e+00
    3.93205e-01      8.02983e+00      1.00000e+02      6.34153e+00
    3.97716e-01      7.80845e+00      1.00000e+02      6.18702e+00
    4.02277e-01      7.60409e+00      1.00000e+02      6.04598e+00
    4.06891e-01      7.41909e+00      1.00000e+02      5.92024e+00
    4.11559e-01      7.23196e+00      1.00000e+02      5.79306e+00
    4.16279e-01      7.04268e+00      1.00000e+02      5.66441e+00
    4.21054e-01      6.85124e+00      1.00000e+02      5.53429e+00
    4.25883e-01      6.65759e+00      1.00000e+02      5.40268e+00
    4.30768e-01      6.46285e+00      1.00000e+02      5.27037e+00
    4.35709e-01      6.30012e+00      1.00000e+02      5.16153e+00
    4.40707e-01      6.13552e+00      1.00000e+02      5.05144e+00
    4.45762e-01      5.96903e+00      1.00000e+02      4.94008e+00
    4.50875e-01      5.80063e+00      1.00000e+02      4.82744e+00
    4.56047e-01      5.63031e+00      1.00000e+02      4.71352e+00
    4.61278e-01      5.45891e+00      1.00000e+02      4.59890e+00
    4.66569e-01      5.31479e+00      1.00000e+02      4.50333e+00
    4.71921e-01      5.16902e+00      1.00000e+02      4.40665e+00
    4.77334e-01      5.02158e+00      1.00000e+02      4.30887e+00
    4.82809e-01      4.87244e+00      1.00000e+02      4.20997e+00
    4.88347e-01      4.72159e+00      1.00000e+02      4.10994e+00
    4.93949e-01      4.57977e+00      1.00000e+02      4.01586e+00
    4.99615e-01      4.45173e+00      1.00000e+02      3.93089e+00
    5.05345e-01      4.32223e+00      1.00000e+02      3.84495e+00
    5.11142e-01      4.19124e+00      1.00000e+02      3.75803e+00
    5.17005e-01      4.05875e+00      1.00000e+02      3.67010e+00
    5.22936e-01      3.92765e+00      1.00000e+02      3.58308e+00
    5.28934e-01      3.81412e+00      1.00000e+02      3.50759e+00
    5.35001e-01      3.69929e+00      1.00000e+02      3.43123e+00
    5.41138e-01      3.58314e+00      1.00000e+02      3.35400e+00
    5.47345e-01      3.46566e+00      1.00000e+02      3.27587e+00
    5.53624e-01      3.34981e+00      1.00000e+02      3.19872e+00
    5.59974e-01      3.24903e+00      1.00000e+02      3.13099e+00
    5.66398e-01      3.14711e+00      1.00000e+02      3.06248e+00
    5.72895e-01      3.04401e+00      1.00000e+02      2.99318e+00
    5.79466e-01      2.93973e+00      1.00000e+02      2.92309e+00
    5.86113e-01      2.84154e+00      1.00000e+02      2.85676e+00
    5.92837e-01      2.75147e+00      1.00000e+02      2.79546e+00
    5.99637e-01      2.66036e+00      1.00000e+02      2.73346e+00
    6.06516e-01      2.56821e+00      1.00000e+02      2.67074e+00
    6.13473e-01      2.47500e+00      1.00000e+02      2.60731e+00
    6.20510e-01      2.39460e+00      1.00000e+02      2.55177e+00
    6.27628e-01      2.31369e+00      1.00000e+02      2.49585e+00
    6.34827e-01      2.23185e+00      1.00000e+02      2.43930e+00
    6.42110e-01      2.14907e+00      1.00000e+02      2.38209e+00
    6.49475e-01      2.07431e+00      1.00000e+02      2.32973e+00
    6.56926e-01      2.00224e+00      1.00000e+02      2.27895e+00
    6.64461e-01      1.92935e+00      1.00000e+02      2.22758e+00
    6.72083e-01      1.85562e+00      1.00000e+02      2.17563e+00
    6.79793e-01      1.78797e+00      1.00000e+02      2.12748e+00
    6.87591e-01      1.72312e+00      1.00000e+02      2.08105e+00
    6.95478e-01      1.65754e+00      1.00000e+02      2.03409e+00
    7.03456e-01      1.59120e+00      1.00000e+02      1.98659e+00
    7.11526e-01      1.53170e+00      1.00000e+02      1.94313e+00
    7.19688e-01      1.47365e+00      1.00000e+02      1.90045e+00
    7.27944e-01      1.41493e+00      1.00000e+02      1.85728e+00
    7.36294e-01      1.35613e+00      1.00000e+02      1.81397e+00
    7.44741e-01      1.30458e+00      1.00000e+02      1.77497e+00
    7.53284e-01      1.25243e+00      1.00000e+02      1.73551e+00
    7.61925e-01      1.19969e+00      1.00000e+02      1.69560e+00
    7.70665e-01      1.15012e+00      1.00000e+02      1.65754e+00
    7.79506e-01      1.10367e+00      1.00000e+02      1.62130e+00
    7.88448e-01      1.05669e+00      1.00000e+02      1.58464e+00
    7.97492e-01      1.00976e+00      1.00000e+02      1.54790e+00
    8.06641e-01      9.68818e-01      1.00000e+02      1.51446e+00
    8.15894e-01      9.27408e-01      1.00000e+02      1.48064e+00
    8.25254e-01      8.85522e-01      1.00000e+02      1.44643e+00
    8.34721e-01      8.47135e-01      1.00000e+02      1.41468e+00
    8.44296e-01      8.09378e-01      1.00000e+02      1.38334e+00
    8.53981e-01      7.71188e-01      1.00000e+02      1.35164e+00
    8.63778e-01      7.36037e-01      1.00000e+02      1.32157e+00
    8.73687e-01      7.02687e-01      1.00000e+02      1.29241e+00
    8.83709e-01      6.68953e-01      1.00000e+02      1.26292e+00
    8.93847e-01      6.37268e-01      1.00000e+02      1.23469e+00
    9.04101e-01      6.07230e-01      1.00000e+02      1.20747e+00
    9.14472e-01      5.76847e-01      1.00000e+02      1.17994e+00
    9.24963e-01      5.48560e-01      1.00000e+02      1.15364e+00
    9.35574e-01      5.21667e-01      1.00000e+02      1.12813e+00
    9.46306e-01      4.94466e-01      1.00000e+02      1.10233e+00
    9.57162e-01      4.69597e-01      1.00000e+02      1.07797e+00
    9.68142e-01      4.45455e-01      1.00000e+02      1.05400e+00
    9.79248e-01      4.21035e-01      1.00000e+02      1.02975e+00
    9.90482e-01      3.99418e-01      1.00000e+02      1.01860e+00
    1.00184e+00      3.77714e-01      1.00000e+02      1.00801e+00
    1.01334e+00      3.56553e-01      1.00000e+02      9.94438e-01
    1.02496e+00      3.37389e-01      1.00000e+02      9.72607e-01
    1.03672e+00      3.18006e-01      1.00000e+02      9.50526e-01
    1.04861e+00      3.00079e-01      1.00000e+02      9.29421e-01
    1.06064e+00      2.82839e-01      1.00000e+02      9.08728e-01
    1.07281e+00      2.65695e-01      1.00000e+02      8.88006e-01
    1.08512e+00      2.50497e-01      1.00000e+02      8.68566e-01
    1.09757e+00      2.35125e-01      1.00000e+02      8.48903e-01
    1.11016e+00      2.20865e-01      1.00000e+02      8.30058e-01
    1.12289e+00      2.07111e-01      1.00000e+02      8.11540e-01
    1.13577e+00      1.93758e-01      1.00000e+02      7.93195e-01
    1.14880e+00      1.81809e-01      1.00000e+02      7.75717e-01
    1.16198e+00      1.69723e-01      1.00000e+02      7.58038e-01
    1.17531e+00      1.58667e-01      1.00000e+02      7.41416e-01
    1.18880e+00      1.47568e-01      1.00000e+02      7.24692e-01
    1.20243e+00      1.37461e-01      1.00000e+02      7.08604e-01
    1.21623e+00      1.27810e-01      1.00000e+02      6.92753e-01
    1.23018e+00      1.18671e-01      1.00000e+02      6.77242e-01
    1.24429e+00      1.10192e-01      1.00000e+02      6.62192e-01
    1.25857e+00      1.01930e-01      1.00000e+02      6.47282e-01
    1.27301e+00      9.43401e-02      1.00000e+02      6.32964e-01
    1.28761e+00      8.68725e-02      1.00000e+02      6.18666e-01
    1.30238e+00      8.02472e-02      1.00000e+02      6.05021e-01
    1.31732e+00      7.36680e-02      1.00000e+02      5.91338e-01
    1.33243e+00      6.78543e-02      1.00000e+02      5.78314e-01
    1.34772e+00      6.20741e-02      1.00000e+02      5.65242e-01
    1.36318e+00      5.69856e-02      1.00000e+02      5.52790e-01
    1.37882e+00      5.19568e-02      1.00000e+02      5.40318e-01
    1.39464e+00      4.75317e-02      1.00000e+02      5.28394e-01
    1.41064e+00      4.32105e-02      1.00000e+02      5.16508e-01
    1.42682e+00      3.93599e-02      1.00000e+02      5.05078e-01
    1.44319e+00      3.56703e-02      1.00000e+02      4.93765e-01
    1.45974e+00      3.23226e-02      1.00000e+02      4.82788e-01
    1.47649e+00      2.92147e-02      1.00000e+02      4.72025e-01
    1.49343e+00      2.63419e-02      1.00000e+02      4.61469e-01
    1.51056e+00      2.37513e-02      1.00000e+02      4.51238e-01
    1.52789e+00      2.12639e-02      1.00000e+02      4.41078e-01
    1.54542e+00      1.91198e-02      1.00000e+02      4.31359e-01
    1.56315e+00      1.70477e-02      1.00000e+02      4.21681e-01
    1.58108e+00      1.52307e-02      1.00000e+02      4.12337e-01
    1.59922e+00      1.35369e-02      1.00000e+02      4.03154e-01
    1.61757e+00      1.19648e-02      1.00000e+02      3.94126e-01
    1.63612e+00      1.06171e-02      1.00000e+02      3.85417e-01
    1.65489e+00      9.34848e-03      1.00000e+02      3.76784e-01
    1.67388e+00      8.25357e-03      1.00000e+02      3.68427e-01
    1.69308e+00      7.24572e-03      1.00000e+02      3.60243e-01
    1.71250e+00      6.29765e-03      1.00000e+02      3.52155e-01
    1.73215e+00      5.52727e-03      1.00000e+02      3.44388e-01
    1.75202e+00      4.82012e-03      1.00000e+02      3.36723e-01
    1.77212e+00      4.18488e-03      1.00000e+02      3.29181e-01
    1.79245e+00      3.66523e-03      1.00000e+02      3.21917e-01
    1.81302e+00      3.19625e-03      1.00000e+02      3.14754e-01
    1.83382e+00      2.78217e-03      1.00000e+02      3.07706e-01
    1.85485e+00      2.45259e-03      1.00000e+02      3.00920e-01
    1.87613e+00      2.16028e-03      1.00000e+02      2.94237e-01
    1.89766e+00      1.90546e-03      1.00000e+02      2.87664e-01
    1.91943e+00      1.69871e-03      1.00000e+02      2.81294e-01
    1.94145e+00      1.52119e-03      1.00000e+02      2.75062e-01
    1.96372e+00      1.36520e-03      1.00000e+02      2.68940e-01
    1.98625e+00      1.22909e-03      1.00000e+02      2.62936e-01
    2.00903e+00      1.12359e-03      1.00000e+02      2.63172e-01
    2.03208e+00      1.02460e-03      1.00000e+02      2.59543e-01
    2.05540e+00      9.33481e-04      1.00000e+02      2.53773e-01
    2.07898e+00      8.52020e-04      1.00000e+02      2.48116e-01
    2.10283e+00      7.80689e-04      1.00000e+02      2.42633e-01
    2.12695e+00      7.19593e-04      1.00000e+02      2.37263e-01
    2.15135e+00      6.65531e-04      1.00000e+02      2.32001e-01
    2.17603e+00      6.17260e-04      1.00000e+02      2.26847e-01
    2.20100e+00      5.75062e-04      1.00000e+02      2.21803e-01
    2.22625e+00      5.39809e-04      1.00000e+02      2.16900e-01
    2.25179e+00      5.09336e-04      1.00000e+02      2.12103e-01
    2.27762e+00      4.83084e-04      1.00000e+02      2.07408e-01
    2.30375e+00      4.60729e-04      1.00000e+02      2.02812e-01
    2.33018e+00      4.41743e-04      1.00000e+02      1.98315e-01
    2.35691e+00      4.25466e-04      1.00000e+02      1.93917e-01
    2.38395e+00      4.11801e-04      1.00000e+02      1.89616e-01
    2.41130e+00      4.00446e-04      1.00000e+02      1.85425e-01
    2.43897e+00      3.90827e-04      1.00000e+02      1.81328e-01
    2.46695e+00      3.82679e-04      1.00000e+02      1.77320e-01
    2.49525e+00      3.75729e-04      1.00000e+02      1.73400e-01
    2.52387e+00      3.69802e-04      1.00000e+02      1.69567e-01
    2.55283e+00      3.64770e-04      1.00000e+02      1.65819e-01
    2.58212e+00      3.60520e-04      1.00000e+02      1.62154e-01
    2.61174e+00      3.56955e-04      1.00000e+02      1.58570e-01
    2.64170e+00      3.54000e-04      1.00000e+02      1.55068e-01
    2.67201e+00      3.51588e-04      1.00000e+02      1.51643e-01
    2.70266e+00      3.49661e-04      1.00000e+02      1.48293e-01
    2.73367e+00      3.48165e-04      1.00000e+02      1.45019e-01
    2.76503e+00      3.47039e-04      1.00000e+02      1.41818e-01
    2.79675e+00      3.46224e-04      1.00000e+02      1.38688e-01
    2.82884e+00      3.45661e-04      1.00000e+02      1.35628e-01
    2.86129e+00      3.45291e-04      1.00000e+02      1.32634e-01
    2.89412e+00      3.45063e-04      1.00000e+02      1.29708e-01
    2.92732e+00      3.44929e-04      1.00000e+02      1.26847e-01
