    Er (keV)         SM dN/dE         BG dN/dE        BSM dN/dE (events/kg/day/keV)
    2.01000e-02      1.19112e-01      1.00000e+01      5.30999e+00
    2.04064e-02      1.18131e-01      1.00000e+01      5.30999e+00
    2.07174e-02      1.17135e-01      1.00000e+01      5.30999e+00
    2.10332e-02      1.16123e-01      1.00000e+01      5.30999e+00
    2.13539e-02      1.15096e-01      1.00000e+01      5.30999e+00
    2.16794e-02      1.14054e-01      1.00000e+01      5.30999e+00
    2.20100e-02      1.12995e-01      1.00000e+01      5.30999e+00
    2.23456e-02      1.11920e-01      1.00000e+01      5.30999e+00
    2.26864e-02      1.10829e-01      1.00000e+01      5.30999e+00
    2.30323e-02      1.09721e-01      1.00000e+01      5.30999e+00
    2.33836e-02      1.08595e-01      1.00000e+01      5.30999e+00
    2.37403e-02      1.07453e-01      1.00000e+01      5.30999e+00
    2.41024e-02      1.06293e-01      1.00000e+01      5.30999e+00
    2.44701e-02      1.05116e-01      1.00000e+01      5.30999e+00
    2.48434e-02      1.03920e-01      1.00000e+01      5.30999e+00
    2.52224e-02      1.02706e-01      1.00000e+01      5.30999e+00
    2.56072e-02      1.01474e-01      1.00000e+01      5.30998e+00
    2.59979e-02      1.00222e-01      1.00000e+01      5.30998e+00
    2.63946e-02      9.89517e-02      1.00000e+01      5.30998e+00
    2.67974e-02      9.76616e-02      1.00000e+01      5.30998e+00
    2.72064e-02      9.63518e-02      1.00000e+01      5.30998e+00
    2.76216e-02      9.50220e-02      1.00000e+01      5.30998e+00
    2.80431e-02      9.36719e-02      1.00000e+01      5.30998e+00
    2.84712e-02      9.23011e-02      1.00000e+01      5.30997e+00
    2.89058e-02      9.09093e-02      1.00000e+01      5.30997e+00
    2.93470e-02      8.94961e-02      1.00000e+01      5.30997e+00
    2.97950e-02      8.80613e-02      1.00000e+01      5.30996e+00
    3.02499e-02      8.66046e-02      1.00000e+01      5.30996e+00
    3.07117e-02      8.51255e-02      1.00000e+01      5.30996e+00
    3.11806e-02      8.36238e-02      1.00000e+01      5.30995e+00
    3.16567e-02      8.20990e-02      1.00000e+01      5.30995e+00
    3.21401e-02      8.05509e-02      1.00000e+01      5.30995e+00
    3.26309e-02      7.89791e-02      1.00000e+01      5.30994e+00
    3.31292e-02      7.73833e-02      1.00000e+01      5.30994e+00
    3.36351e-02      7.57629e-02      1.00000e+01      5.30993e+00
    3.41488e-02      7.41178e-02      1.00000e+01      5.30993e+00
    3.46704e-02      7.24474e-02      1.00000e+01      5.30993e+00
    3.51999e-02      7.07515e-02      1.00000e+01      5.30992e+00
    3.57376e-02      6.90296e-02      1.00000e+01      5.30992e+00
    3.62835e-02      6.72814e-02      1.00000e+01      5.30992e+00
    3.68377e-02      6.55065e-02      1.00000e+01      5.30991e+00
    3.74005e-02      6.37044e-02      1.00000e+01      5.30991e+00
    3.79718e-02      6.18746e-02      1.00000e+01      5.30991e+00
    3.85520e-02      6.00169e-02      1.00000e+01      5.30991e+00
    3.91410e-02      5.81307e-02      1.00000e+01      5.30991e+00
    3.97390e-02      5.62155e-02      1.00000e+01      5.30991e+00
    4.03462e-02      5.42711e-02      1.00000e+01      5.30990e+00
    4.09627e-02      5.22969e-02      1.00000e+01      5.30990e+00
    4.15886e-02      5.02924e-02      1.00000e+01      5.30990e+00
    4.22241e-02      4.82572e-02      1.00000e+01      5.30990e+00
    4.28694e-02      4.61909e-02      1.00000e+01      5.30990e+00
    4.35245e-02      4.40929e-02      1.00000e+01      5.30990e+00
    4.41897e-02      4.19628e-02      1.00000e+01      5.30989e+00
    4.48651e-02      3.98002e-02      1.00000e+01      5.30989e+00
    4.55508e-02      3.76044e-02      1.00000e+01      5.30988e+00
    4.62470e-02      3.53751e-02      1.00000e+01      5.30987e+00
    4.69539e-02      3.31115e-02      1.00000e+01      5.30987e+00
    4.76716e-02      3.08133e-02      1.00000e+01      5.30986e+00
    4.84003e-02      2.84799e-02      1.00000e+01      5.30986e+00
    4.91401e-02      2.61108e-02      1.00000e+01      5.30985e+00
    4.98913e-02      2.37054e-02      1.00000e+01      5.30984e+00
    5.06540e-02      2.12631e-02      1.00000e+01      5.30984e+00
    5.14284e-02      1.87834e-02      1.00000e+01      5.30983e+00
    5.22146e-02      1.62657e-02      1.00000e+01      5.30982e+00
    5.30129e-02      1.48870e-02      1.00000e+01      5.30982e+00
    5.38235e-02      1.36624e-02      1.00000e+01      5.30981e+00
    5.46464e-02      1.24189e-02      1.00000e+01      5.30980e+00
    5.54819e-02      1.11565e-02      1.00000e+01      5.30979e+00
    5.63303e-02      9.87470e-03      1.00000e+01      5.30978e+00
    5.71916e-02      8.57327e-03      1.00000e+01      5.30977e+00
    5.80661e-02      7.25190e-03      1.00000e+01      5.30976e+00
    5.89540e-02      5.91030e-03      1.00000e+01      5.30975e+00
    5.98556e-02      4.54814e-03      1.00000e+01      5.30974e+00
    6.07709e-02      3.34997e-03      1.00000e+01      5.30973e+00
    6.17002e-02      3.31945e-03      1.00000e+01      5.30972e+00
    6.26438e-02      3.28847e-03      1.00000e+01      5.30971e+00
    6.36019e-02      3.25701e-03      1.00000e+01      5.30970e+00
    6.45746e-02      3.22507e-03      1.00000e+01      5.30969e+00
    6.55622e-02      3.19264e-03      1.00000e+01      5.30968e+00
    6.65650e-02      3.15972e-03      1.00000e+01      5.30967e+00
    6.75831e-02      3.12629e-03      1.00000e+01      5.30966e+00
    6.86168e-02      3.09234e-03      1.00000e+01      5.30965e+00
    6.96663e-02      3.05788e-03      1.00000e+01      5.30963e+00
    7.07319e-02      3.02290e-03      1.00000e+01      5.30962e+00
    7.18138e-02      2.98738e-03      1.00000e+01      5.30961e+00
    7.29124e-02      2.95131e-03      1.00000e+01      5.30960e+00
    7.40277e-02      2.91469e-03      1.00000e+01      5.30958e+00
    7.51601e-02      2.87751e-03      1.00000e+01      5.30957e+00
    7.63099e-02      2.83976e-03      1.00000e+01      5.30956e+00
    7.74773e-02      2.80144e-03      1.00000e+01      5.30955e+00
    7.86625e-02      2.76253e-03      1.00000e+01      5.30954e+00
    7.98659e-02      2.72302e-03      1.00000e+01      5.30952e+00
    8.10878e-02      2.68291e-03      1.00000e+01      5.30951e+00
    8.23283e-02      2.64219e-03      1.00000e+01      5.30950e+00
    8.35879e-02      2.60084e-03      1.00000e+01      5.30949e+00
    8.48668e-02      2.55886e-03      1.00000e+01      5.30948e+00
    8.61652e-02      2.51624e-03      1.00000e+01      5.30947e+00
    8.74836e-02      2.47297e-03      1.00000e+01      5.30945e+00
    8.88221e-02      2.42903e-03      1.00000e+01      5.30943e+00
    9.01812e-02      2.38442e-03      1.00000e+01      5.30941e+00
    9.15610e-02      2.33913e-03      1.00000e+01      5.30939e+00
    9.29620e-02      2.29314e-03      1.00000e+01      5.30938e+00
    9.43845e-02      2.24646e-03      1.00000e+01      5.30936e+00
    9.58287e-02      2.19906e-03      1.00000e+01      5.30934e+00
    9.72951e-02      2.15093e-03      1.00000e+01      5.30932e+00
    9.87839e-02      2.10207e-03      1.00000e+01      5.30929e+00
    1.00296e-01      2.05246e-03      1.00000e+01      5.30927e+00
    1.01830e-01      2.00209e-03      1.00000e+01      5.30925e+00
    1.03389e-01      1.95095e-03      1.00000e+01      5.30923e+00
    1.04971e-01      1.89903e-03      1.00000e+01      5.30921e+00
    1.06577e-01      1.84632e-03      1.00000e+01      5.30919e+00
    1.08208e-01      1.79279e-03      1.00000e+01      5.30917e+00
    1.09864e-01      1.73845e-03      1.00000e+01      5.30915e+00
    1.11546e-01      1.68328e-03      1.00000e+01      5.30913e+00
    1.13253e-01      1.62727e-03      1.00000e+01      5.30911e+00
    1.14986e-01      1.57039e-03      1.00000e+01      5.30909e+00
    1.16746e-01      1.51265e-03      1.00000e+01      5.30907e+00
    1.18533e-01      1.45403e-03      1.00000e+01      5.30905e+00
    1.20347e-01      1.39451e-03      1.00000e+01      5.30902e+00
    1.22189e-01      1.33408e-03      1.00000e+01      5.30900e+00
    1.24059e-01      1.27272e-03      1.00000e+01      5.30897e+00
    1.25958e-01      1.21042e-03      1.00000e+01      5.30895e+00
    1.27885e-01      1.14718e-03      1.00000e+01      5.30893e+00
    1.29843e-01      1.08297e-03      1.00000e+01      5.30890e+00
    1.31830e-01      1.01777e-03      1.00000e+01      5.30887e+00
    1.33848e-01      9.51578e-04      1.00000e+01      5.30885e+00
    1.35897e-01      8.84372e-04      1.00000e+01      5.30882e+00
    1.37977e-01      8.16142e-04      1.00000e+01      5.30880e+00
    1.40089e-01      7.46868e-04      1.00000e+01      5.30877e+00
    1.42233e-01      6.76532e-04      1.00000e+01      5.30875e+00
    1.44410e-01      6.05530e-04      1.00000e+01      5.30872e+00
    1.46621e-01      5.34944e-04      1.00000e+01      5.30869e+00
    1.48865e-01      4.63276e-04      1.00000e+01      5.30867e+00
    1.51144e-01      3.90510e-04      1.00000e+01      5.30864e+00
    1.53458e-01      3.31987e-04      1.00000e+01      5.30861e+00
    1.55807e-01      2.87259e-04      1.00000e+01      5.30857e+00
    1.58192e-01      2.41846e-04      1.00000e+01      5.30853e+00
    1.60614e-01      1.96077e-04      1.00000e+01      5.30850e+00
    1.63072e-01      1.95813e-04      1.00000e+01      5.30847e+00
    1.65569e-01      1.95545e-04      1.00000e+01      5.30844e+00
    1.68104e-01      1.95273e-04      1.00000e+01      5.30840e+00
    1.70677e-01      1.94999e-04      1.00000e+01      5.30837e+00
    1.73290e-01      1.94721e-04      1.00000e+01      5.30834e+00
    1.75943e-01      1.94439e-04      1.00000e+01      5.30831e+00
    1.78636e-01      1.94154e-04      1.00000e+01      5.30827e+00
    1.81371e-01      1.93867e-04      1.00000e+01      5.30824e+00
    1.84148e-01      1.93575e-04      1.00000e+01      5.30821e+00
    1.86967e-01      1.93279e-04      1.00000e+01      5.30817e+00
    1.89830e-01      1.92980e-04      1.00000e+01      5.30814e+00
    1.92736e-01      1.92677e-04      1.00000e+01      5.30811e+00
    1.95687e-01      1.92371e-04      1.00000e+01      5.30807e+00
    1.98683e-01      1.92062e-04      1.00000e+01      5.30804e+00
    2.01724e-01      1.91747e-04      1.00000e+01      5.30801e+00
    2.04813e-01      1.91431e-04      1.00000e+01      5.30797e+00
    2.07949e-01      1.91111e-04      1.00000e+01      5.30794e+00
    2.11132e-01      1.90786e-04      1.00000e+01      5.30791e+00
    2.14365e-01      1.90459e-04      1.00000e+01      5.30787e+00
    2.17647e-01      1.90127e-04      1.00000e+01      5.30784e+00
    2.20980e-01      1.89791e-04      1.00000e+01      5.30781e+00
    2.24363e-01      1.89452e-04      1.00000e+01      5.30777e+00
    2.27798e-01      1.89108e-04      1.00000e+01      5.30774e+00
    2.31286e-01      1.88761e-04      1.00000e+01      5.30770e+00
    2.34827e-01      1.88409e-04      1.00000e+01      5.30767e+00
    2.38423e-01      1.88054e-04      1.00000e+01      5.30763e+00
    2.42074e-01      1.87694e-04      1.00000e+01      5.30759e+00
    2.45780e-01      1.87330e-04      1.00000e+01      5.30747e+00
    2.49543e-01      1.86962e-04      1.00000e+01      5.30725e+00
    2.53364e-01      1.86590e-04      1.00000e+01      5.30708e+00
    2.57244e-01      1.86214e-04      1.00000e+01      5.30704e+00
    2.61183e-01      1.85833e-04      1.00000e+01      5.30700e+00
    2.65182e-01      1.85449e-04      1.00000e+01      5.30696e+00
    2.69242e-01      1.85060e-04      1.00000e+01      5.30691e+00
    2.73365e-01      1.84668e-04      1.00000e+01      5.30687e+00
    2.77551e-01      1.84269e-04      1.00000e+01      5.30682e+00
    2.81801e-01      1.83868e-04      1.00000e+01      5.30678e+00
    2.86116e-01      1.83461e-04      1.00000e+01      5.30673e+00
    2.90497e-01      1.83051e-04      1.00000e+01      5.30668e+00
    2.94946e-01      1.82635e-04      1.00000e+01      5.30663e+00
    2.99462e-01      1.82216e-04      1.00000e+01      5.30658e+00
    3.04048e-01      1.81791e-04      1.00000e+01      5.30653e+00
    3.08703e-01      1.81363e-04      1.00000e+01      5.30648e+00
    3.13431e-01      1.80929e-04      1.00000e+01      5.30642e+00
    3.18230e-01      1.80490e-04      1.00000e+01      5.30637e+00
    3.23103e-01      1.80048e-04      1.00000e+01      5.30631e+00
    3.28051e-01      1.79601e-04      1.00000e+01      5.30625e+00
    3.33075e-01      1.79149e-04      1.00000e+01      5.30620e+00
    3.38175e-01      1.78692e-04      1.00000e+01      5.30614e+00
    3.43354e-01      1.78230e-04      1.00000e+01      5.30608e+00
    3.48612e-01      1.77764e-04      1.00000e+01      5.30601e+00
    3.53950e-01      1.77292e-04      1.00000e+01      5.30595e+00
    3.59370e-01      1.76815e-04      1.00000e+01      5.30589e+00
    3.64874e-01      1.76334e-04      1.00000e+01      5.30582e+00
    3.70461e-01      1.75847e-04      1.00000e+01      5.30575e+00
    3.76134e-01      1.75355e-04      1.00000e+01      5.30569e+00
    3.81894e-01      1.74859e-04      1.00000e+01      5.30561e+00
    3.87743e-01      1.74357e-04      1.00000e+01      5.30554e+00
    3.93681e-01      1.73851e-04      1.00000e+01      5.30547e+00
    3.99710e-01      1.73340e-04      1.00000e+01      5.30540e+00
    4.05831e-01      1.72823e-04      1.00000e+01      5.30532e+00
    4.12046e-01      1.72300e-04      1.00000e+01      5.30525e+00
    4.18356e-01      1.71773e-04      1.00000e+01      5.30518e+00
    4.24763e-01      1.71241e-04      1.00000e+01      5.30510e+00
    4.31268e-01      1.70704e-04      1.00000e+01      5.30502e+00
    4.37872e-01      1.70161e-04      1.00000e+01      5.30494e+00
    4.44578e-01      1.69612e-04      1.00000e+01      5.30486e+00
    4.51386e-01      1.69058e-04      1.00000e+01      5.30477e+00
    4.58299e-01      1.68499e-04      1.00000e+01      5.30469e+00
    4.65318e-01      1.67934e-04      1.00000e+01      5.30460e+00
    4.72444e-01      1.67364e-04      1.00000e+01      5.30451e+00
    4.79679e-01      1.66788e-04      1.00000e+01      5.30442e+00
    4.87026e-01      1.66207e-04      1.00000e+01      5.30433e+00
    4.94484e-01      1.65620e-04      1.00000e+01      5.30424e+00
    5.02057e-01      1.65028e-04      1.00000e+01      5.30415e+00
    5.09746e-01      1.64430e-04      1.00000e+01      5.30406e+00
    5.17553e-01      1.63826e-04      1.00000e+01      5.30396e+00
    5.25479e-01      1.63218e-04      1.00000e+01      5.30386e+00
    5.33527e-01      1.62603e-04      1.00000e+01      5.30376e+00
    5.41698e-01      1.61983e-04      1.00000e+01      5.30366e+00
    5.49994e-01      1.61358e-04      1.00000e+01      5.30356e+00
    5.58417e-01      1.60728e-04      1.00000e+01      5.30345e+00
    5.66970e-01      1.60092e-04      1.00000e+01      5.30334e+00
    5.75653e-01      1.59450e-04      1.00000e+01      5.30324e+00
    5.84469e-01      1.58802e-04      1.00000e+01      5.30313e+00
    5.93421e-01      1.58148e-04      1.00000e+01      5.30303e+00
    6.02509e-01      1.57489e-04      1.00000e+01      5.30292e+00
    6.11737e-01      1.56824e-04      1.00000e+01      5.30281e+00
    6.21106e-01      1.56155e-04      1.00000e+01      5.30271e+00
    6.30618e-01      1.55479e-04      1.00000e+01      5.30260e+00
    6.40276e-01      1.54797e-04      1.00000e+01      5.30249e+00
    6.50083e-01      1.54109e-04      1.00000e+01      5.30238e+00
    6.60039e-01      1.53415e-04      1.00000e+01      5.30227e+00
    6.70148e-01      1.52715e-04      1.00000e+01      5.30215e+00
    6.80412e-01      1.52009e-04      1.00000e+01      5.30204e+00
    6.90833e-01      1.51298e-04      1.00000e+01      5.30192e+00
    7.01413e-01      1.50582e-04      1.00000e+01      5.30181e+00
    7.12156e-01      1.49859e-04      1.00000e+01      5.30169e+00
    7.23063e-01      1.49131e-04      1.00000e+01      5.30156e+00
    7.34137e-01      1.48397e-04      1.00000e+01      5.30144e+00
    7.45381e-01      1.47657e-04      1.00000e+01      5.30131e+00
    7.56798e-01      1.46912e-04      1.00000e+01      5.30118e+00
    7.68389e-01      1.46161e-04      1.00000e+01      5.30105e+00
    7.80157e-01      1.45405e-04      1.00000e+01      5.30092e+00
    7.92106e-01      1.44642e-04      1.00000e+01      5.30078e+00
    8.04238e-01      1.43874e-04      1.00000e+01      5.30063e+00
    8.16556e-01      1.43100e-04      1.00000e+01      5.30049e+00
    8.29062e-01      1.42320e-04      1.00000e+01      5.30034e+00
    8.41760e-01      1.41535e-04      1.00000e+01      5.30019e+00
    8.54653e-01      1.40745e-04      1.00000e+01      5.30003e+00
    8.67743e-01      1.39949e-04      1.00000e+01      5.29987e+00
    8.81033e-01      1.39147e-04      1.00000e+01      5.29970e+00
    8.94527e-01      1.38340e-04      1.00000e+01      5.29954e+00
    9.08228e-01      1.37527e-04      1.00000e+01      5.29936e+00
    9.22139e-01      1.36709e-04      1.00000e+01      5.29919e+00
    9.36262e-01      1.35885e-04      1.00000e+01      5.29901e+00
    9.50602e-01      1.35056e-04      1.00000e+01      5.29883e+00
    9.65162e-01      1.34221e-04      1.00000e+01      5.29865e+00
    9.79945e-01      1.33380e-04      1.00000e+01      5.29846e+00
    9.94954e-01      1.32535e-04      1.00000e+01      5.29827e+00
    1.01019e+00      1.31684e-04      1.00000e+01      5.29808e+00
    1.02567e+00      1.30828e-04      1.00000e+01      5.29789e+00
    1.04138e+00      1.29968e-04      1.00000e+01      5.29770e+00
    1.05733e+00      1.29102e-04      1.00000e+01      5.29750e+00
    1.07352e+00      1.28231e-04      1.00000e+01      5.29729e+00
    1.08996e+00      1.27355e-04      1.00000e+01      5.29708e+00
    1.10666e+00      1.26474e-04      1.00000e+01      5.29687e+00
    1.12361e+00      1.25587e-04      1.00000e+01      5.29666e+00
    1.14082e+00      1.24696e-04      1.00000e+01      5.29644e+00
    1.15829e+00      1.23800e-04      1.00000e+01      5.29621e+00
    1.17603e+00      1.22899e-04      1.00000e+01      5.29599e+00
    1.19404e+00      1.21993e-04      1.00000e+01      5.29576e+00
    1.21233e+00      1.21083e-04      1.00000e+01      5.29553e+00
    1.23090e+00      1.20169e-04      1.00000e+01      5.29531e+00
    1.24976e+00      1.19251e-04      1.00000e+01      5.29508e+00
    1.26890e+00      1.18328e-04      1.00000e+01      5.29485e+00
    1.28833e+00      1.17401e-04      1.00000e+01      5.29461e+00
    1.30807e+00      1.16469e-04      1.00000e+01      5.29437e+00
    1.32810e+00      1.15533e-04      1.00000e+01      5.29413e+00
    1.34844e+00      1.14593e-04      1.00000e+01      5.29387e+00
    1.36910e+00      1.13650e-04      1.00000e+01      5.29362e+00
    1.39007e+00      1.12702e-04      1.00000e+01      5.29336e+00
    1.41136e+00      1.11750e-04      1.00000e+01      5.29309e+00
    1.43298e+00      1.10793e-04      1.00000e+01      5.29283e+00
    1.45493e+00      1.09833e-04      1.00000e+01      5.29255e+00
    1.47721e+00      1.08871e-04      1.00000e+01      5.29227e+00
    1.49984e+00      1.07905e-04      1.00000e+01      5.29199e+00
    1.52281e+00      1.06937e-04      1.00000e+01      5.29170e+00
    1.54613e+00      1.05965e-04      1.00000e+01      5.29140e+00
    1.56982e+00      1.04990e-04      1.00000e+01      5.29110e+00
    1.59386e+00      1.04012e-04      1.00000e+01      5.29080e+00
    1.61827e+00      1.03032e-04      1.00000e+01      5.29048e+00
    1.64306e+00      1.02048e-04      1.00000e+01      5.29016e+00
    1.66823e+00      1.01062e-04      1.00000e+01      5.28984e+00
    1.69378e+00      1.00073e-04      1.00000e+01      5.28951e+00
    1.71972e+00      9.90825e-05      1.00000e+01      5.28918e+00
    1.74607e+00      9.80897e-05      1.00000e+01      5.28884e+00
    1.77281e+00      9.70946e-05      1.00000e+01      5.28850e+00
    1.79996e+00      9.60975e-05      1.00000e+01      5.28816e+00
