    Er (keV)         SM dN/dE         BG dN/dE        BSM dN/dE (events/kg/day/keV)
    1.00100e-01      1.47613e-03      1.00000e+02      7.69031e-07
    1.01247e-01      1.47373e-03      1.00000e+02      7.69030e-07
    1.02408e-01      1.47131e-03      1.00000e+02      7.69028e-07
    1.03582e-01      1.46886e-03      1.00000e+02      7.69027e-07
    1.04769e-01      1.46638e-03      1.00000e+02      7.69026e-07
    1.05970e-01      1.46387e-03      1.00000e+02      7.69024e-07
    1.07184e-01      1.46134e-03      1.00000e+02      7.69023e-07
    1.08413e-01      1.45877e-03      1.00000e+02      7.69022e-07
    1.09655e-01      1.45618e-03      1.00000e+02      7.69020e-07
    1.10912e-01      1.45355e-03      1.00000e+02      7.69019e-07
    1.12184e-01      1.45090e-03      1.00000e+02      7.69017e-07
    1.13470e-01      1.44821e-03      1.00000e+02      7.69016e-07
    1.14770e-01      1.44550e-03      1.00000e+02      7.69014e-07
    1.16086e-01      1.44275e-03      1.00000e+02      7.69013e-07
    1.17417e-01      1.43997e-03      1.00000e+02      7.69011e-07
    1.18763e-01      1.43716e-03      1.00000e+02      7.69010e-07
    1.20124e-01      1.43432e-03      1.00000e+02      7.69008e-07
    1.21501e-01      1.43145e-03      1.00000e+02      7.69007e-07
    1.22894e-01      1.42854e-03      1.00000e+02      7.69005e-07
    1.24303e-01      1.42560e-03      1.00000e+02      7.69003e-07
    1.25728e-01      1.42262e-03      1.00000e+02      7.69002e-07
    1.27169e-01      1.41961e-03      1.00000e+02      7.69000e-07
    1.28627e-01      1.41657e-03      1.00000e+02      7.68998e-07
    1.30101e-01      1.41349e-03      1.00000e+02      7.68997e-07
    1.31593e-01      1.41058e-03      1.00000e+02      7.68995e-07
    1.33101e-01      1.40765e-03      1.00000e+02      7.68994e-07
    1.34627e-01      1.40468e-03      1.00000e+02      7.68992e-07
    1.36171e-01      1.40168e-03      1.00000e+02      7.68990e-07
    1.37732e-01      1.39865e-03      1.00000e+02      7.68989e-07
    1.39311e-01      1.39559e-03      1.00000e+02      7.68987e-07
    1.40908e-01      1.39248e-03      1.00000e+02      7.68985e-07
    1.42523e-01      1.38935e-03      1.00000e+02      7.68984e-07
    1.44157e-01      1.38617e-03      1.00000e+02      7.68982e-07
    1.45810e-01      1.38296e-03      1.00000e+02      7.68980e-07
    1.47482e-01      1.37971e-03      1.00000e+02      7.68978e-07
    1.49173e-01      1.37643e-03      1.00000e+02      7.68977e-07
    1.50883e-01      1.37311e-03      1.00000e+02      7.68975e-07
    1.52613e-01      1.36975e-03      1.00000e+02      7.68973e-07
    1.54363e-01      1.36635e-03      1.00000e+02      7.68971e-07
    1.56133e-01      1.36291e-03      1.00000e+02      7.68969e-07
    1.57923e-01      1.35943e-03      1.00000e+02      7.68967e-07
    1.59733e-01      1.35592e-03      1.00000e+02      7.68965e-07
    1.61565e-01      1.35250e-03      1.00000e+02      7.68963e-07
    1.63417e-01      1.34913e-03      1.00000e+02      7.68961e-07
    1.65291e-01      1.34573e-03      1.00000e+02      7.68959e-07
    1.67186e-01      1.34228e-03      1.00000e+02      7.68957e-07
    1.69103e-01      1.33879e-03      1.00000e+02      7.68955e-07
    1.71042e-01      1.33527e-03      1.00000e+02      7.68953e-07
    1.73003e-01      1.33170e-03      1.00000e+02      7.68950e-07
    1.74987e-01      1.32809e-03      1.00000e+02      7.68948e-07
    1.76994e-01      1.32444e-03      1.00000e+02      7.68946e-07
    1.79023e-01      1.32075e-03      1.00000e+02      7.68944e-07
    1.81076e-01      1.31702e-03      1.00000e+02      7.68941e-07
    1.83152e-01      1.31324e-03      1.00000e+02      7.68939e-07
    1.85252e-01      1.30942e-03      1.00000e+02      7.68937e-07
    1.87377e-01      1.30556e-03      1.00000e+02      7.68934e-07
    1.89525e-01      1.30165e-03      1.00000e+02      7.68932e-07
    1.91698e-01      1.29782e-03      1.00000e+02      7.68930e-07
    1.93897e-01      1.29406e-03      1.00000e+02      7.68928e-07
    1.96120e-01      1.29025e-03      1.00000e+02      7.68926e-07
    1.98369e-01      1.28641e-03      1.00000e+02      7.68924e-07
    2.00644e-01      1.28252e-03      1.00000e+02      7.68922e-07
    2.02944e-01      1.27858e-03      1.00000e+02      7.68920e-07
    2.05272e-01      1.27460e-03      1.00000e+02      7.68918e-07
    2.07626e-01      1.27057e-03      1.00000e+02      7.68916e-07
    2.10006e-01      1.26650e-03      1.00000e+02      7.68914e-07
    2.12415e-01      1.26238e-03      1.00000e+02      7.68912e-07
    2.14851e-01      1.25821e-03      1.00000e+02      7.68910e-07
    2.17314e-01      1.25400e-03      1.00000e+02      7.68908e-07
    2.19806e-01      1.24973e-03      1.00000e+02      7.68906e-07
    2.22327e-01      1.24557e-03      1.00000e+02      7.68904e-07
    2.24877e-01      1.24145e-03      1.00000e+02      7.68902e-07
    2.27455e-01      1.23729e-03      1.00000e+02      7.68900e-07
    2.30064e-01      1.23308e-03      1.00000e+02      7.68898e-07
    2.32702e-01      1.22882e-03      1.00000e+02      7.68896e-07
    2.35371e-01      1.22451e-03      1.00000e+02      7.68894e-07
    2.38070e-01      1.22016e-03      1.00000e+02      7.68892e-07
    2.40800e-01      1.21575e-03      1.00000e+02      7.68890e-07
    2.43562e-01      1.21129e-03      1.00000e+02      7.68888e-07
    2.46355e-01      1.20679e-03      1.00000e+02      7.68886e-07
    2.49180e-01      1.20223e-03      1.00000e+02      7.68884e-07
    2.52038e-01      1.19770e-03      1.00000e+02      7.68880e-07
    2.54928e-01      1.19328e-03      1.00000e+02      7.68872e-07
    2.57852e-01      1.18881e-03      1.00000e+02      7.68864e-07
    2.60809e-01      1.18429e-03      1.00000e+02      7.68856e-07
    2.63800e-01      1.17972e-03      1.00000e+02      7.68848e-07
    2.66826e-01      1.17509e-03      1.00000e+02      7.68840e-07
    2.69886e-01      1.17041e-03      1.00000e+02      7.68832e-07
    2.72981e-01      1.16568e-03      1.00000e+02      7.68824e-07
    2.76112e-01      1.16089e-03      1.00000e+02      7.68815e-07
    2.79278e-01      1.15605e-03      1.00000e+02      7.68807e-07
    2.82481e-01      1.15125e-03      1.00000e+02      7.68801e-07
    2.85721e-01      1.14655e-03      1.00000e+02      7.68798e-07
    2.88998e-01      1.14180e-03      1.00000e+02      7.68795e-07
    2.92313e-01      1.13699e-03      1.00000e+02      7.68792e-07
    2.95665e-01      1.13213e-03      1.00000e+02      7.68789e-07
    2.99056e-01      1.12721e-03      1.00000e+02      7.68786e-07
    3.02486e-01      1.12224e-03      1.00000e+02      7.68783e-07
    3.05955e-01      1.11720e-03      1.00000e+02      7.68780e-07
    3.09464e-01      1.11211e-03      1.00000e+02      7.68777e-07
    3.13013e-01      1.10708e-03      1.00000e+02      7.68774e-07
    3.16603e-01      1.10213e-03      1.00000e+02      7.68771e-07
    3.20235e-01      1.09712e-03      1.00000e+02      7.68768e-07
    3.23908e-01      1.09206e-03      1.00000e+02      7.68764e-07
    3.27623e-01      1.08693e-03      1.00000e+02      7.68761e-07
    3.31380e-01      1.08175e-03      1.00000e+02      7.68757e-07
    3.35181e-01      1.07651e-03      1.00000e+02      7.68754e-07
    3.39025e-01      1.07121e-03      1.00000e+02      7.68750e-07
    3.42914e-01      1.06593e-03      1.00000e+02      7.68747e-07
    3.46847e-01      1.06077e-03      1.00000e+02      7.68743e-07
    3.50825e-01      1.05554e-03      1.00000e+02      7.68739e-07
    3.54849e-01      1.05026e-03      1.00000e+02      7.68736e-07
    3.58919e-01      1.04491e-03      1.00000e+02      7.68732e-07
    3.63035e-01      1.03950e-03      1.00000e+02      7.68728e-07
    3.67199e-01      1.03403e-03      1.00000e+02      7.68724e-07
    3.71411e-01      1.02850e-03      1.00000e+02      7.68720e-07
    3.75671e-01      1.02314e-03      1.00000e+02      7.68716e-07
    3.79980e-01      1.01774e-03      1.00000e+02      7.68711e-07
    3.84338e-01      1.01228e-03      1.00000e+02      7.68707e-07
    3.88747e-01      1.00676e-03      1.00000e+02      7.68702e-07
    3.93205e-01      1.00117e-03      1.00000e+02      7.68698e-07
    3.97716e-01      9.95518e-04      1.00000e+02      7.68693e-07
    4.02277e-01      9.89817e-04      1.00000e+02      7.68689e-07
    4.06891e-01      9.84296e-04      1.00000e+02      7.68684e-07
    4.11559e-01      9.78711e-04      1.00000e+02      7.68679e-07
    4.16279e-01      9.73063e-04      1.00000e+02      7.68675e-07
    4.21054e-01      9.67350e-04      1.00000e+02      7.68670e-07
    4.25883e-01      9.61571e-04      1.00000e+02      7.68665e-07
    4.30768e-01      9.55726e-04      1.00000e+02      7.68660e-07
    4.35709e-01      9.49995e-04      1.00000e+02      7.68655e-07
    4.40707e-01      9.44276e-04      1.00000e+02      7.68650e-07
    4.45762e-01      9.38490e-04      1.00000e+02      7.68645e-07
    4.50875e-01      9.32639e-04      1.00000e+02      7.68640e-07
    4.56047e-01      9.26720e-04      1.00000e+02      7.68635e-07
    4.61278e-01      9.20733e-04      1.00000e+02      7.68630e-07
    4.66569e-01      9.14884e-04      1.00000e+02      7.68624e-07
    4.71921e-01      9.09025e-04      1.00000e+02      7.68619e-07
    4.77334e-01      9.03099e-04      1.00000e+02      7.68613e-07
    4.82809e-01      8.97105e-04      1.00000e+02      7.68607e-07
    4.88347e-01      8.91042e-04      1.00000e+02      7.68601e-07
    4.93949e-01      8.84970e-04      1.00000e+02      7.68596e-07
    4.99615e-01      8.79027e-04      1.00000e+02      7.68590e-07
    5.05345e-01      8.73016e-04      1.00000e+02      7.68584e-07
    5.11142e-01      8.66936e-04      1.00000e+02      7.68578e-07
    5.17005e-01      8.60787e-04      1.00000e+02      7.68572e-07
    5.22936e-01      8.54571e-04      1.00000e+02      7.68566e-07
    5.28934e-01      8.48536e-04      1.00000e+02      7.68560e-07
    5.35001e-01      8.42431e-04      1.00000e+02      7.68554e-07
    5.41138e-01      8.36256e-04      1.00000e+02      7.68547e-07
    5.47345e-01      8.30010e-04      1.00000e+02      7.68541e-07
    5.53624e-01      8.23717e-04      1.00000e+02      7.68535e-07
    5.59974e-01      8.17588e-04      1.00000e+02      7.68528e-07
    5.66398e-01      8.11388e-04      1.00000e+02      7.68521e-07
    5.72895e-01      8.05117e-04      1.00000e+02      7.68514e-07
    5.79466e-01      7.98774e-04      1.00000e+02      7.68507e-07
    5.86113e-01      7.92471e-04      1.00000e+02      7.68501e-07
    5.92837e-01      7.86245e-04      1.00000e+02      7.68494e-07
    5.99637e-01      7.79946e-04      1.00000e+02      7.68487e-07
    6.06516e-01      7.73576e-04      1.00000e+02      7.68480e-07
    6.13473e-01      7.67134e-04      1.00000e+02      7.68473e-07
    6.20510e-01      7.60872e-04      1.00000e+02      7.68466e-07
    6.27628e-01      7.54538e-04      1.00000e+02      7.68459e-07
    6.34827e-01      7.48131e-04      1.00000e+02      7.68452e-07
    6.42110e-01      7.41651e-04      1.00000e+02      7.68445e-07
    6.49475e-01      7.35297e-04      1.00000e+02      7.68439e-07
    6.56926e-01      7.28924e-04      1.00000e+02      7.68432e-07
    6.64461e-01      7.22478e-04      1.00000e+02      7.68425e-07
    6.72083e-01      7.15958e-04      1.00000e+02      7.68418e-07
    6.79793e-01      7.09558e-04      1.00000e+02      7.68411e-07
    6.87591e-01      7.03143e-04      1.00000e+02      7.68404e-07
    6.95478e-01      6.96654e-04      1.00000e+02      7.68397e-07
    7.03456e-01      6.90091e-04      1.00000e+02      7.68390e-07
    7.11526e-01      6.83685e-04      1.00000e+02      7.68383e-07
    7.19688e-01      6.77224e-04      1.00000e+02      7.68376e-07
    7.27944e-01      6.70689e-04      1.00000e+02      7.68369e-07
    7.36294e-01      6.64141e-04      1.00000e+02      7.68362e-07
    7.44741e-01      6.57708e-04      1.00000e+02      7.68355e-07
    7.53284e-01      6.51202e-04      1.00000e+02      7.68347e-07
    7.61925e-01      6.44621e-04      1.00000e+02      7.68340e-07
    7.70665e-01      6.38140e-04      1.00000e+02      7.68332e-07
    7.79506e-01      6.31656e-04      1.00000e+02      7.68324e-07
    7.88448e-01      6.25098e-04      1.00000e+02      7.68316e-07
    7.97492e-01      6.18541e-04      1.00000e+02      7.68308e-07
    8.06641e-01      6.12076e-04      1.00000e+02      7.68300e-07
    8.15894e-01      6.05537e-04      1.00000e+02      7.68291e-07
    8.25254e-01      5.98933e-04      1.00000e+02      7.68282e-07
    8.34721e-01      5.92491e-04      1.00000e+02      7.68273e-07
    8.44296e-01      5.85974e-04      1.00000e+02      7.68264e-07
    8.53981e-01      5.79383e-04      1.00000e+02      7.68255e-07
    8.63778e-01      5.72931e-04      1.00000e+02      7.68246e-07
    8.73687e-01      5.66432e-04      1.00000e+02      7.68236e-07
    8.83709e-01      5.59858e-04      1.00000e+02      7.68226e-07
    8.93847e-01      5.53411e-04      1.00000e+02      7.68216e-07
    9.04101e-01      5.46926e-04      1.00000e+02      7.68206e-07
    9.14472e-01      5.40366e-04      1.00000e+02      7.68195e-07
    9.24963e-01      5.33944e-04      1.00000e+02      7.68184e-07
    9.35574e-01      5.27469e-04      1.00000e+02      7.68173e-07
    9.46306e-01      5.20935e-04      1.00000e+02      7.68162e-07
    9.57162e-01      5.14548e-04      1.00000e+02      7.68150e-07
    9.68142e-01      5.08088e-04      1.00000e+02      7.68139e-07
    9.79248e-01      5.01678e-04      1.00000e+02      7.71001e-07
    9.90482e-01      4.95478e-04      1.00000e+02      7.80512e-07
    1.00184e+00      4.89207e-04      1.00000e+02      7.90132e-07
    1.01334e+00      4.82896e-04      1.00000e+02      7.93694e-07
    1.02496e+00      4.76531e-04      1.00000e+02      7.93681e-07
    1.03672e+00      4.70102e-04      1.00000e+02      7.93668e-07
    1.04861e+00      4.63815e-04      1.00000e+02      7.93655e-07
    1.06064e+00      4.57456e-04      1.00000e+02      7.93642e-07
    1.07281e+00      4.51140e-04      1.00000e+02      7.93629e-07
    1.08512e+00      4.44859e-04      1.00000e+02      7.93616e-07
    1.09757e+00      4.38522e-04      1.00000e+02      7.93602e-07
    1.11016e+00      4.32319e-04      1.00000e+02      7.93589e-07
    1.12289e+00      4.26044e-04      1.00000e+02      7.93575e-07
    1.13577e+00      4.19850e-04      1.00000e+02      7.93561e-07
    1.14880e+00      4.13652e-04      1.00000e+02      7.93546e-07
    1.16198e+00      4.07464e-04      1.00000e+02      7.93532e-07
    1.17531e+00      4.01340e-04      1.00000e+02      7.93517e-07
    1.18880e+00      3.95170e-04      1.00000e+02      7.93502e-07
    1.20243e+00      3.89121e-04      1.00000e+02      7.93487e-07
    1.21623e+00      3.83003e-04      1.00000e+02      7.93471e-07
    1.23018e+00      3.77006e-04      1.00000e+02      7.93455e-07
    1.24429e+00      3.70958e-04      1.00000e+02      7.93440e-07
    1.25857e+00      3.64998e-04      1.00000e+02      7.93424e-07
    1.27301e+00      3.59020e-04      1.00000e+02      7.93408e-07
    1.28761e+00      3.53109e-04      1.00000e+02      7.93392e-07
    1.30238e+00      3.47200e-04      1.00000e+02      7.93377e-07
    1.31732e+00      3.41348e-04      1.00000e+02      7.93361e-07
    1.33243e+00      3.35509e-04      1.00000e+02      7.93346e-07
    1.34772e+00      3.29724e-04      1.00000e+02      7.93330e-07
    1.36318e+00      3.23949e-04      1.00000e+02      7.93314e-07
    1.37882e+00      3.18240e-04      1.00000e+02      7.93298e-07
    1.39464e+00      3.12532e-04      1.00000e+02      7.93281e-07
    1.41064e+00      3.06903e-04      1.00000e+02      7.93264e-07
    1.42682e+00      3.01258e-04      1.00000e+02      7.93247e-07
    1.44319e+00      2.95716e-04      1.00000e+02      7.93229e-07
    1.45974e+00      2.90142e-04      1.00000e+02      7.93212e-07
    1.47649e+00      2.84687e-04      1.00000e+02      7.93194e-07
    1.49343e+00      2.79214e-04      1.00000e+02      7.93175e-07
    1.51056e+00      2.73821e-04      1.00000e+02      7.93157e-07
    1.52789e+00      2.68454e-04      1.00000e+02      7.93138e-07
    1.54542e+00      2.63120e-04      1.00000e+02      7.93120e-07
    1.56315e+00      2.57862e-04      1.00000e+02      7.93101e-07
    1.58108e+00      2.52598e-04      1.00000e+02      7.93082e-07
    1.59922e+00      2.47439e-04      1.00000e+02      7.93062e-07
    1.61757e+00      2.42293e-04      1.00000e+02      7.93042e-07
    1.63612e+00      2.37193e-04      1.00000e+02      7.93021e-07
    1.65489e+00      2.32169e-04      1.00000e+02      7.93001e-07
    1.67388e+00      2.27156e-04      1.00000e+02      7.92980e-07
    1.69308e+00      2.22226e-04      1.00000e+02      7.92958e-07
    1.71250e+00      2.17340e-04      1.00000e+02      7.92937e-07
    1.73215e+00      2.12474e-04      1.00000e+02      7.92915e-07
    1.75202e+00      2.07708e-04      1.00000e+02      7.92892e-07
    1.77212e+00      2.02976e-04      1.00000e+02      7.92869e-07
    1.79245e+00      1.98272e-04      1.00000e+02      7.92846e-07
    1.81302e+00      1.93663e-04      1.00000e+02      7.92822e-07
    1.83382e+00      1.89094e-04      1.00000e+02      7.92799e-07
    1.85485e+00      1.84559e-04      1.00000e+02      7.92775e-07
    1.87613e+00      1.80106e-04      1.00000e+02      7.92752e-07
    1.89766e+00      1.75712e-04      1.00000e+02      7.92728e-07
    1.91943e+00      1.71359e-04      1.00000e+02      7.92704e-07
    1.94145e+00      1.67056e-04      1.00000e+02      7.92680e-07
    1.96372e+00      1.62843e-04      1.00000e+02      7.92655e-07
    1.98625e+00      1.58887e-04      1.00000e+02      8.04246e-07
    2.00903e+00      1.55022e-04      1.00000e+02      8.18172e-07
    2.03208e+00      1.50957e-04      1.00000e+02      8.18145e-07
    2.05540e+00      1.46980e-04      1.00000e+02      8.18118e-07
    2.07898e+00      1.43054e-04      1.00000e+02      8.18091e-07
    2.10283e+00      1.39182e-04      1.00000e+02      8.18063e-07
    2.12695e+00      1.35366e-04      1.00000e+02      8.18035e-07
    2.15135e+00      1.31620e-04      1.00000e+02      8.18007e-07
    2.17603e+00      1.27946e-04      1.00000e+02      8.17979e-07
    2.20100e+00      1.24331e-04      1.00000e+02      8.17951e-07
    2.22625e+00      1.20774e-04      1.00000e+02      8.17922e-07
    2.25179e+00      1.17276e-04      1.00000e+02      8.17892e-07
    2.27762e+00      1.13841e-04      1.00000e+02      8.17862e-07
    2.30375e+00      1.10471e-04      1.00000e+02      8.17832e-07
    2.33018e+00      1.07180e-04      1.00000e+02      8.17801e-07
    2.35691e+00      1.03947e-04      1.00000e+02      8.17770e-07
    2.38395e+00      1.00777e-04      1.00000e+02      8.17738e-07
    2.41130e+00      9.76709e-05      1.00000e+02      8.17706e-07
    2.43897e+00      9.46285e-05      1.00000e+02      8.17674e-07
    2.46695e+00      9.16507e-05      1.00000e+02      8.17640e-07
    2.49525e+00      8.87381e-05      1.00000e+02      8.17607e-07
    2.52387e+00      8.58889e-05      1.00000e+02      8.17573e-07
    2.55283e+00      8.31039e-05      1.00000e+02      8.17538e-07
    2.58212e+00      8.03872e-05      1.00000e+02      8.17503e-07
    2.61174e+00      7.77345e-05      1.00000e+02      8.17468e-07
    2.64170e+00      7.51472e-05      1.00000e+02      8.17432e-07
    2.67201e+00      7.26245e-05      1.00000e+02      8.17402e-07
    2.70266e+00      7.01659e-05      1.00000e+02      8.17397e-07
    2.73367e+00      6.77734e-05      1.00000e+02      8.17359e-07
    2.76503e+00      6.54433e-05      1.00000e+02      8.17320e-07
    2.79675e+00      6.31778e-05      1.00000e+02      8.17281e-07
    2.82884e+00      6.09748e-05      1.00000e+02      8.17241e-07
    2.86129e+00      5.88351e-05      1.00000e+02      8.17200e-07
    2.89412e+00      5.67583e-05      1.00000e+02      8.17159e-07
    2.92732e+00      5.47421e-05      1.00000e+02      8.17118e-07
