    Er (keV)         SM dN/dE         BG dN/dE        BSM dN/dE (events/kg/day/keV)
    5.01000e-02      2.20460e+01      5.00000e+00      3.54643e-05
    5.07729e-02      2.19467e+01      5.00000e+00      3.51697e-05
    5.14550e-02      2.18460e+01      5.00000e+00      3.48712e-05
    5.21461e-02      2.17440e+01      5.00000e+00      3.45686e-05
    5.28466e-02      2.16407e+01      5.00000e+00      3.42619e-05
    5.35565e-02      2.15359e+01      5.00000e+00      3.39511e-05
    5.42760e-02      2.14297e+01      5.00000e+00      3.36362e-05
    5.50052e-02      2.13221e+01      5.00000e+00      3.33169e-05
    5.57441e-02      2.12131e+01      5.00000e+00      3.29934e-05
    5.64931e-02      2.11026e+01      5.00000e+00      3.26656e-05
    5.72520e-02      2.09906e+01      5.00000e+00      3.23333e-05
    5.80213e-02      2.08771e+01      5.00000e+00      3.19966e-05
    5.88008e-02      2.07620e+01      5.00000e+00      3.16553e-05
    5.95909e-02      2.06454e+01      5.00000e+00      3.13094e-05
    6.03916e-02      2.05273e+01      5.00000e+00      3.09589e-05
    6.12030e-02      2.04075e+01      5.00000e+00      3.06037e-05
    6.20254e-02      2.02862e+01      5.00000e+00      3.02437e-05
    6.28589e-02      2.01632e+01      5.00000e+00      2.98788e-05
    6.37035e-02      2.00385e+01      5.00000e+00      2.95090e-05
    6.45596e-02      1.99122e+01      5.00000e+00      2.91343e-05
    6.54271e-02      1.97842e+01      5.00000e+00      2.87545e-05
    6.63064e-02      1.96544e+01      5.00000e+00      2.83696e-05
    6.71974e-02      1.95230e+01      5.00000e+00      2.79795e-05
    6.81005e-02      1.93897e+01      5.00000e+00      2.75841e-05
    6.90157e-02      1.92546e+01      5.00000e+00      2.71835e-05
    6.99433e-02      1.91178e+01      5.00000e+00      2.67774e-05
    7.08833e-02      1.89790e+01      5.00000e+00      2.63659e-05
    7.18360e-02      1.88385e+01      5.00000e+00      2.59488e-05
    7.28014e-02      1.86960e+01      5.00000e+00      2.55262e-05
    7.37799e-02      1.85516e+01      5.00000e+00      2.50978e-05
    7.47716e-02      1.84053e+01      5.00000e+00      2.46637e-05
    7.57766e-02      1.82569e+01      5.00000e+00      2.42237e-05
    7.67951e-02      1.81066e+01      5.00000e+00      2.37778e-05
    7.78274e-02      1.79543e+01      5.00000e+00      2.33259e-05
    7.88735e-02      1.77999e+01      5.00000e+00      2.28680e-05
    7.99337e-02      1.76435e+01      5.00000e+00      2.24038e-05
    8.10082e-02      1.74849e+01      5.00000e+00      2.19334e-05
    8.20971e-02      1.73242e+01      5.00000e+00      2.14567e-05
    8.32007e-02      1.71614e+01      5.00000e+00      2.09736e-05
    8.43192e-02      1.69963e+01      5.00000e+00      2.04840e-05
    8.54527e-02      1.68291e+01      5.00000e+00      1.99877e-05
    8.66014e-02      1.66595e+01      5.00000e+00      1.94848e-05
    8.77657e-02      1.64877e+01      5.00000e+00      1.89752e-05
    8.89456e-02      1.63136e+01      5.00000e+00      1.84586e-05
    9.01413e-02      1.61372e+01      5.00000e+00      1.79352e-05
    9.13532e-02      1.60255e+01      5.00000e+00      1.76747e-05
    9.25814e-02      1.59267e+01      5.00000e+00      1.74689e-05
    9.38261e-02      1.58266e+01      5.00000e+00      1.72602e-05
    9.50875e-02      1.57252e+01      5.00000e+00      1.70488e-05
    9.63660e-02      1.56224e+01      5.00000e+00      1.68345e-05
    9.76616e-02      1.55182e+01      5.00000e+00      1.66174e-05
    9.89747e-02      1.54126e+01      5.00000e+00      1.63973e-05
    1.00305e-01      1.53056e+01      5.00000e+00      1.61742e-05
    1.01654e-01      1.51972e+01      5.00000e+00      1.59482e-05
    1.03021e-01      1.50873e+01      5.00000e+00      1.57191e-05
    1.04406e-01      1.49759e+01      5.00000e+00      1.54869e-05
    1.05810e-01      1.48630e+01      5.00000e+00      1.52516e-05
    1.07233e-01      1.47486e+01      5.00000e+00      1.50131e-05
    1.08675e-01      1.46327e+01      5.00000e+00      1.47714e-05
    1.10136e-01      1.45152e+01      5.00000e+00      1.45265e-05
    1.11617e-01      1.43961e+01      5.00000e+00      1.42783e-05
    1.13118e-01      1.42754e+01      5.00000e+00      1.40267e-05
    1.14639e-01      1.41531e+01      5.00000e+00      1.37718e-05
    1.16181e-01      1.40291e+01      5.00000e+00      1.35134e-05
    1.17743e-01      1.39035e+01      5.00000e+00      1.32515e-05
    1.19326e-01      1.37762e+01      5.00000e+00      1.29861e-05
    1.20931e-01      1.36471e+01      5.00000e+00      1.27172e-05
    1.22557e-01      1.35164e+01      5.00000e+00      1.24446e-05
    1.24205e-01      1.33839e+01      5.00000e+00      1.21683e-05
    1.25876e-01      1.32495e+01      5.00000e+00      1.18884e-05
    1.27568e-01      1.31134e+01      5.00000e+00      1.16046e-05
    1.29284e-01      1.29755e+01      5.00000e+00      1.13171e-05
    1.31023e-01      1.28436e+01      5.00000e+00      1.10534e-05
    1.32785e-01      1.27459e+01      5.00000e+00      1.09128e-05
    1.34571e-01      1.26469e+01      5.00000e+00      1.07704e-05
    1.36380e-01      1.25466e+01      5.00000e+00      1.06260e-05
    1.38215e-01      1.24450e+01      5.00000e+00      1.04797e-05
    1.40074e-01      1.23420e+01      5.00000e+00      1.03315e-05
    1.41957e-01      1.22376e+01      5.00000e+00      1.01812e-05
    1.43867e-01      1.21318e+01      5.00000e+00      1.00289e-05
    1.45802e-01      1.20246e+01      5.00000e+00      9.87455e-06
    1.47763e-01      1.19159e+01      5.00000e+00      9.71814e-06
    1.49750e-01      1.18057e+01      5.00000e+00      9.55961e-06
    1.51764e-01      1.16941e+01      5.00000e+00      9.39896e-06
    1.53805e-01      1.15810e+01      5.00000e+00      9.23614e-06
    1.55874e-01      1.14664e+01      5.00000e+00      9.07113e-06
    1.57971e-01      1.13502e+01      5.00000e+00      8.90390e-06
    1.60095e-01      1.12324e+01      5.00000e+00      8.73442e-06
    1.62249e-01      1.11131e+01      5.00000e+00      8.56266e-06
    1.64431e-01      1.09922e+01      5.00000e+00      8.38858e-06
    1.66643e-01      1.08696e+01      5.00000e+00      8.21216e-06
    1.68884e-01      1.07454e+01      5.00000e+00      8.03337e-06
    1.71156e-01      1.06208e+01      5.00000e+00      7.85508e-06
    1.73458e-01      1.05244e+01      5.00000e+00      7.74152e-06
    1.75792e-01      1.04268e+01      5.00000e+00      7.62642e-06
    1.78156e-01      1.03279e+01      5.00000e+00      7.50978e-06
    1.80553e-01      1.02276e+01      5.00000e+00      7.39157e-06
    1.82981e-01      1.01259e+01      5.00000e+00      7.27176e-06
    1.85443e-01      1.00229e+01      5.00000e+00      7.15035e-06
    1.87937e-01      9.91856e+00      5.00000e+00      7.02730e-06
    1.90465e-01      9.81277e+00      5.00000e+00      6.90259e-06
    1.93028e-01      9.70555e+00      5.00000e+00      6.77620e-06
    1.95624e-01      9.59689e+00      5.00000e+00      6.64812e-06
    1.98256e-01      9.48677e+00      5.00000e+00      6.51831e-06
    2.00923e-01      9.37517e+00      5.00000e+00      6.38675e-06
    2.03626e-01      9.26207e+00      5.00000e+00      6.25342e-06
    2.06365e-01      9.14744e+00      5.00000e+00      6.11830e-06
    2.09141e-01      9.03127e+00      5.00000e+00      5.98136e-06
    2.11954e-01      8.91842e+00      5.00000e+00      5.85126e-06
    2.14806e-01      8.82491e+00      5.00000e+00      5.75645e-06
    2.17695e-01      8.73013e+00      5.00000e+00      5.66036e-06
    2.20624e-01      8.63408e+00      5.00000e+00      5.56298e-06
    2.23592e-01      8.53673e+00      5.00000e+00      5.46428e-06
    2.26600e-01      8.43807e+00      5.00000e+00      5.36426e-06
    2.29649e-01      8.33809e+00      5.00000e+00      5.26289e-06
    2.32738e-01      8.23676e+00      5.00000e+00      5.16016e-06
    2.35869e-01      8.13407e+00      5.00000e+00      5.05605e-06
    2.39042e-01      8.02999e+00      5.00000e+00      4.95053e-06
    2.42258e-01      7.92452e+00      5.00000e+00      4.84359e-06
    2.45517e-01      7.81762e+00      5.00000e+00      4.73522e-06
    2.48821e-01      7.70928e+00      5.00000e+00      4.62538e-06
    2.52168e-01      7.60211e+00      5.00000e+00      4.51793e-06
    2.55561e-01      7.51300e+00      5.00000e+00      4.43782e-06
    2.58999e-01      7.42270e+00      5.00000e+00      4.35663e-06
    2.62483e-01      7.33118e+00      5.00000e+00      4.27434e-06
    2.66015e-01      7.23843e+00      5.00000e+00      4.19095e-06
    2.69594e-01      7.14443e+00      5.00000e+00      4.10644e-06
    2.73221e-01      7.04916e+00      5.00000e+00      4.02078e-06
    2.76897e-01      6.95261e+00      5.00000e+00      3.93398e-06
    2.80622e-01      6.85477e+00      5.00000e+00      3.84601e-06
    2.84398e-01      6.75560e+00      5.00000e+00      3.75685e-06
    2.88224e-01      6.65511e+00      5.00000e+00      3.66649e-06
    2.92102e-01      6.55325e+00      5.00000e+00      3.57492e-06
    2.96032e-01      6.46928e+00      5.00000e+00      3.50684e-06
    3.00015e-01      6.38426e+00      5.00000e+00      3.43797e-06
    3.04052e-01      6.29810e+00      5.00000e+00      3.36817e-06
    3.08142e-01      6.21079e+00      5.00000e+00      3.29744e-06
    3.12288e-01      6.12230e+00      5.00000e+00      3.22575e-06
    3.16490e-01      6.03261e+00      5.00000e+00      3.15309e-06
    3.20748e-01      5.94172e+00      5.00000e+00      3.07946e-06
    3.25064e-01      5.84961e+00      5.00000e+00      3.00484e-06
    3.29438e-01      5.75626e+00      5.00000e+00      2.92921e-06
    3.33870e-01      5.66684e+00      5.00000e+00      2.85871e-06
    3.38362e-01      5.58768e+00      5.00000e+00      2.80083e-06
    3.42915e-01      5.50745e+00      5.00000e+00      2.74218e-06
    3.47529e-01      5.42614e+00      5.00000e+00      2.68273e-06
    3.52205e-01      5.34374e+00      5.00000e+00      2.62248e-06
    3.56944e-01      5.26023e+00      5.00000e+00      2.56143e-06
    3.61747e-01      5.17560e+00      5.00000e+00      2.49955e-06
    3.66614e-01      5.08983e+00      5.00000e+00      2.43683e-06
    3.71547e-01      5.00290e+00      5.00000e+00      2.37328e-06
    3.76546e-01      4.92541e+00      5.00000e+00      2.32012e-06
    3.81613e-01      4.85058e+00      5.00000e+00      2.27017e-06
    3.86748e-01      4.77475e+00      5.00000e+00      2.21955e-06
    3.91952e-01      4.69790e+00      5.00000e+00      2.16825e-06
    3.97226e-01      4.62001e+00      5.00000e+00      2.11626e-06
    4.02571e-01      4.54107e+00      5.00000e+00      2.06357e-06
    4.07987e-01      4.46107e+00      5.00000e+00      2.01017e-06
    4.13477e-01      4.38066e+00      5.00000e+00      1.95668e-06
    4.19041e-01      4.31097e+00      5.00000e+00      1.91375e-06
    4.24679e-01      4.24035e+00      5.00000e+00      1.87024e-06
    4.30394e-01      4.16878e+00      5.00000e+00      1.82614e-06
    4.36185e-01      4.09624e+00      5.00000e+00      1.78145e-06
    4.42054e-01      4.02273e+00      5.00000e+00      1.73616e-06
    4.48003e-01      3.94823e+00      5.00000e+00      1.69026e-06
    4.54031e-01      3.87362e+00      5.00000e+00      1.64451e-06
    4.60140e-01      3.80811e+00      5.00000e+00      1.60694e-06
    4.66332e-01      3.74172e+00      5.00000e+00      1.56886e-06
    4.72607e-01      3.67444e+00      5.00000e+00      1.53027e-06
    4.78966e-01      3.60625e+00      5.00000e+00      1.49116e-06
    4.85412e-01      3.53714e+00      5.00000e+00      1.45152e-06
    4.91943e-01      3.46711e+00      5.00000e+00      1.41135e-06
    4.98563e-01      3.40294e+00      5.00000e+00      1.37602e-06
    5.05272e-01      3.34078e+00      5.00000e+00      1.34248e-06
    5.12071e-01      3.27779e+00      5.00000e+00      1.30848e-06
    5.18962e-01      3.21394e+00      5.00000e+00      1.27403e-06
    5.25945e-01      3.14924e+00      5.00000e+00      1.23912e-06
    5.33022e-01      3.08367e+00      5.00000e+00      1.20373e-06
    5.40195e-01      3.02446e+00      5.00000e+00      1.17318e-06
    5.47464e-01      2.96597e+00      5.00000e+00      1.14332e-06
    5.54831e-01      2.90668e+00      5.00000e+00      1.11305e-06
    5.62297e-01      2.84660e+00      5.00000e+00      1.08238e-06
    5.69864e-01      2.78570e+00      5.00000e+00      1.05129e-06
    5.77532e-01      2.72682e+00      5.00000e+00      1.02185e-06
    5.85304e-01      2.67175e+00      5.00000e+00      9.95384e-07
    5.93180e-01      2.61593e+00      5.00000e+00      9.68562e-07
    6.01162e-01      2.55937e+00      5.00000e+00      9.41379e-07
    6.09252e-01      2.50205e+00      5.00000e+00      9.13830e-07
    6.17451e-01      2.44641e+00      5.00000e+00      8.87256e-07
    6.25759e-01      2.39571e+00      5.00000e+00      8.63432e-07
    6.34180e-01      2.34433e+00      5.00000e+00      8.39288e-07
    6.42714e-01      2.29226e+00      5.00000e+00      8.14818e-07
    6.51363e-01      2.23948e+00      5.00000e+00      7.90020e-07
    6.60129e-01      2.18923e+00      5.00000e+00      7.67071e-07
    6.69012e-01      2.14097e+00      5.00000e+00      7.45621e-07
    6.78015e-01      2.09207e+00      5.00000e+00      7.23882e-07
    6.87139e-01      2.04250e+00      5.00000e+00      7.01851e-07
    6.96386e-01      1.99274e+00      5.00000e+00      6.79786e-07
    7.05757e-01      1.94777e+00      5.00000e+00      6.60541e-07
    7.15254e-01      1.90219e+00      5.00000e+00      6.41038e-07
    7.24880e-01      1.85601e+00      5.00000e+00      6.21271e-07
    7.34634e-01      1.80920e+00      5.00000e+00      6.01239e-07
    7.44521e-01      1.76629e+00      5.00000e+00      5.83290e-07
    7.54540e-01      1.72354e+00      5.00000e+00      5.65484e-07
    7.64694e-01      1.68022e+00      5.00000e+00      5.47439e-07
    7.74984e-01      1.63631e+00      5.00000e+00      5.29151e-07
    7.85414e-01      1.59618e+00      5.00000e+00      5.12921e-07
    7.95983e-01      1.55617e+00      5.00000e+00      4.96828e-07
    8.06695e-01      1.51563e+00      5.00000e+00      4.80519e-07
    8.17551e-01      1.47488e+00      5.00000e+00      4.64164e-07
    8.28553e-01      1.43766e+00      5.00000e+00      4.49697e-07
    8.39703e-01      1.39994e+00      5.00000e+00      4.35036e-07
    8.51003e-01      1.36172e+00      5.00000e+00      4.20177e-07
    8.62456e-01      1.32502e+00      5.00000e+00      4.06075e-07
    8.74062e-01      1.29015e+00      5.00000e+00      3.92876e-07
    8.85825e-01      1.25482e+00      5.00000e+00      3.79499e-07
    8.97746e-01      1.21910e+00      5.00000e+00      3.65990e-07
    9.09827e-01      1.18650e+00      5.00000e+00      3.54035e-07
    9.22071e-01      1.15346e+00      5.00000e+00      3.41920e-07
    9.34480e-01      1.11997e+00      5.00000e+00      3.29642e-07
    9.47056e-01      1.08861e+00      5.00000e+00      3.18358e-07
    9.59801e-01      1.05774e+00      5.00000e+00      3.07341e-07
    9.72717e-01      1.02647e+00      5.00000e+00      2.96175e-07
    9.85808e-01      9.96642e-01      5.00000e+00      2.85685e-07
    9.99074e-01      9.67750e-01      5.00000e+00      2.75643e-07
    1.01252e+00      9.38470e-01      5.00000e+00      2.65466e-07
    1.02615e+00      9.10442e-01      5.00000e+00      2.55865e-07
    1.03996e+00      8.83337e-01      5.00000e+00      2.46697e-07
    1.05395e+00      8.55867e-01      5.00000e+00      2.37405e-07
    1.06813e+00      8.29803e-01      5.00000e+00      2.28702e-07
    1.08251e+00      8.04335e-01      5.00000e+00      2.20262e-07
    1.09708e+00      7.78524e-01      5.00000e+00      2.11709e-07
    1.11184e+00      7.54497e-01      5.00000e+00      2.03890e-07
    1.12680e+00      7.30508e-01      5.00000e+00      1.96110e-07
    1.14197e+00      7.06565e-01      5.00000e+00      1.88369e-07
    1.15734e+00      6.84267e-01      5.00000e+00      1.81293e-07
    1.17291e+00      6.61668e-01      5.00000e+00      1.74121e-07
    1.18870e+00      6.39950e-01      5.00000e+00      1.67303e-07
    1.20469e+00      6.18893e-01      5.00000e+00      1.60755e-07
    1.22091e+00      5.97633e-01      5.00000e+00      1.54148e-07
    1.23734e+00      5.77996e-01      5.00000e+00      1.48152e-07
    1.25399e+00      5.58095e-01      5.00000e+00      1.42075e-07
    1.27087e+00      5.39033e-01      5.00000e+00      1.36327e-07
    1.28797e+00      5.20439e-01      5.00000e+00      1.30770e-07
    1.30530e+00      5.02020e-01      5.00000e+00      1.25291e-07
    1.32287e+00      4.84641e-01      5.00000e+00      1.20204e-07
    1.34067e+00      4.67028e-01      5.00000e+00      1.15049e-07
    1.35872e+00      4.50705e-01      5.00000e+00      1.10354e-07
    1.37700e+00      4.34218e-01      5.00000e+00      1.05616e-07
    1.39553e+00      4.18583e-01      5.00000e+00      1.01187e-07
    1.41431e+00      4.03104e-01      5.00000e+00      9.68245e-08
    1.43335e+00      3.88216e-01      5.00000e+00      9.26806e-08
    1.45264e+00      3.73679e-01      5.00000e+00      8.86717e-08
    1.47219e+00      3.59575e-01      5.00000e+00      8.48244e-08
    1.49200e+00      3.45914e-01      5.00000e+00      8.11420e-08
    1.51208e+00      3.32600e-01      5.00000e+00      7.75820e-08
    1.53243e+00      3.19723e-01      5.00000e+00      7.41741e-08
    1.55305e+00      3.07227e-01      5.00000e+00      7.08809e-08
    1.57395e+00      2.95165e-01      5.00000e+00      6.77172e-08
    1.59514e+00      2.83524e-01      5.00000e+00      6.46861e-08
    1.61660e+00      2.72204e-01      5.00000e+00      6.17580e-08
    1.63836e+00      2.61104e-01      5.00000e+00      5.89886e-08
    1.66041e+00      2.50039e-01      5.00000e+00      5.62809e-08
    1.68276e+00      2.39726e-01      5.00000e+00      5.37438e-08
    1.70540e+00      2.29489e-01      5.00000e+00      5.12233e-08
    1.72835e+00      2.19887e-01      5.00000e+00      4.88773e-08
    1.75162e+00      2.10306e-01      5.00000e+00      4.65585e-08
    1.77519e+00      2.00972e-01      5.00000e+00      4.43540e-08
    1.79908e+00      1.92185e-01      5.00000e+00      4.22319e-08
    1.82329e+00      1.83772e-01      5.00000e+00      4.01632e-08
    1.84783e+00      1.75625e-01      5.00000e+00      3.82315e-08
    1.87270e+00      1.67580e-01      5.00000e+00      3.63331e-08
    1.89790e+00      1.59895e-01      5.00000e+00      3.45232e-08
    1.92344e+00      1.52493e-01      5.00000e+00      3.27916e-08
    1.94933e+00      1.45224e-01      5.00000e+00      3.11022e-08
    1.97557e+00      1.38221e-01      5.00000e+00      2.95185e-08
    2.00215e+00      1.31591e-01      5.00000e+00      2.79914e-08
    2.02910e+00      1.25282e-01      5.00000e+00      2.65112e-08
    2.05641e+00      1.19680e-01      5.00000e+00      2.51279e-08
    2.08408e+00      1.13648e-01      5.00000e+00      2.37945e-08
    2.11213e+00      1.07430e-01      5.00000e+00      2.25068e-08
    2.14056e+00      1.01967e-01      5.00000e+00      2.12954e-08
    2.16937e+00      9.67158e-02      5.00000e+00      2.01443e-08
    2.19856e+00      9.16309e-02      5.00000e+00      1.90402e-08
    2.22815e+00      8.67340e-02      5.00000e+00      1.79880e-08
    2.25814e+00      8.21296e-02      5.00000e+00      1.70023e-08
    2.28853e+00      7.76593e-02      5.00000e+00      1.60511e-08
    2.31933e+00      7.33387e-02      5.00000e+00      1.51358e-08
    2.35054e+00      6.91882e-02      5.00000e+00      1.42579e-08
    2.38218e+00      6.52850e-02      5.00000e+00      1.34313e-08
    2.41424e+00      6.15305e-02      5.00000e+00      1.26413e-08
    2.44673e+00      5.79239e-02      5.00000e+00      1.18857e-08
    2.47966e+00      5.44660e-02      5.00000e+00      1.11635e-08
    2.51303e+00      5.11562e-02      5.00000e+00      1.04744e-08
    2.54685e+00      4.80395e-02      5.00000e+00      9.82025e-09
    2.58113e+00      4.50646e-02      5.00000e+00      9.19974e-09
    2.61587e+00      4.22215e-02      5.00000e+00      8.61011e-09
