    Er (keV)         SM dN/dE         BG dN/dE        BSM dN/dE (events/kg/day/keV)
    1.01000e-02      8.67295e-01      5.00000e+00      1.89662e-06
    1.02614e-02      8.62747e-01      5.00000e+00      1.88660e-06
    1.04254e-02      8.58125e-01      5.00000e+00      1.87641e-06
    1.05921e-02      8.53428e-01      5.00000e+00      1.86606e-06
    1.07615e-02      8.48656e-01      5.00000e+00      1.85555e-06
    1.09336e-02      8.43806e-01      5.00000e+00      1.84487e-06
    1.11084e-02      8.38879e-01      5.00000e+00      1.83401e-06
    1.12861e-02      8.33871e-01      5.00000e+00      1.82298e-06
    1.14667e-02      8.28783e-01      5.00000e+00      1.81177e-06
    1.16502e-02      8.23613e-01      5.00000e+00      1.80037e-06
    1.18366e-02      8.18359e-01      5.00000e+00      1.78880e-06
    1.20261e-02      8.13021e-01      5.00000e+00      1.77704e-06
    1.22186e-02      8.07596e-01      5.00000e+00      1.76509e-06
    1.24142e-02      8.02084e-01      5.00000e+00      1.75294e-06
    1.26129e-02      7.96483e-01      5.00000e+00      1.74060e-06
    1.28149e-02      7.90791e-01      5.00000e+00      1.72806e-06
    1.30202e-02      7.85008e-01      5.00000e+00      1.71532e-06
    1.32287e-02      7.79131e-01      5.00000e+00      1.70237e-06
    1.34406e-02      7.73159e-01      5.00000e+00      1.68921e-06
    1.36560e-02      7.67091e-01      5.00000e+00      1.67584e-06
    1.38748e-02      7.60925e-01      5.00000e+00      1.66226e-06
    1.40971e-02      7.54660e-01      5.00000e+00      1.64846e-06
    1.43231e-02      7.48293e-01      5.00000e+00      1.63443e-06
    1.45527e-02      7.41823e-01      5.00000e+00      1.62017e-06
    1.47859e-02      7.35249e-01      5.00000e+00      1.60569e-06
    1.50230e-02      7.28569e-01      5.00000e+00      1.59097e-06
    1.52639e-02      7.21782e-01      5.00000e+00      1.57602e-06
    1.55086e-02      7.14884e-01      5.00000e+00      1.56082e-06
    1.57574e-02      7.07876e-01      5.00000e+00      1.54538e-06
    1.60101e-02      7.00754e-01      5.00000e+00      1.52969e-06
    1.62669e-02      6.93517e-01      5.00000e+00      1.51374e-06
    1.65279e-02      6.86163e-01      5.00000e+00      1.49754e-06
    1.67931e-02      6.78691e-01      5.00000e+00      1.48108e-06
    1.70625e-02      6.71098e-01      5.00000e+00      1.46435e-06
    1.73363e-02      6.63382e-01      5.00000e+00      1.44735e-06
    1.76145e-02      6.55542e-01      5.00000e+00      1.43008e-06
    1.78972e-02      6.47576e-01      5.00000e+00      1.41253e-06
    1.81845e-02      6.39480e-01      5.00000e+00      1.39469e-06
    1.84764e-02      6.31255e-01      5.00000e+00      1.37657e-06
    1.87731e-02      6.22896e-01      5.00000e+00      1.35815e-06
    1.90745e-02      6.14402e-01      5.00000e+00      1.33944e-06
    1.93808e-02      6.05772e-01      5.00000e+00      1.32042e-06
    1.96920e-02      5.97002e-01      5.00000e+00      1.30110e-06
    2.00082e-02      5.88090e-01      5.00000e+00      1.28147e-06
    2.03296e-02      5.79035e-01      5.00000e+00      1.26151e-06
    2.06561e-02      5.69833e-01      5.00000e+00      1.24124e-06
    2.09879e-02      5.60483e-01      5.00000e+00      1.22064e-06
    2.13251e-02      5.50982e-01      5.00000e+00      1.19971e-06
    2.16677e-02      5.41328e-01      5.00000e+00      1.17844e-06
    2.20158e-02      5.31517e-01      5.00000e+00      1.15682e-06
    2.23696e-02      5.21549e-01      5.00000e+00      1.13486e-06
    2.27291e-02      5.11419e-01      5.00000e+00      1.11254e-06
    2.30943e-02      5.01126e-01      5.00000e+00      1.08987e-06
    2.34655e-02      4.90667e-01      5.00000e+00      1.06682e-06
    2.38426e-02      4.80039e-01      5.00000e+00      1.04341e-06
    2.42259e-02      4.69240e-01      5.00000e+00      1.01961e-06
    2.46153e-02      4.58266e-01      5.00000e+00      9.95435e-07
    2.50110e-02      4.47115e-01      5.00000e+00      9.70867e-07
    2.54131e-02      4.35784e-01      5.00000e+00      9.45902e-07
    2.58217e-02      4.24270e-01      5.00000e+00      9.20534e-07
    2.62369e-02      4.12570e-01      5.00000e+00      8.94757e-07
    2.66588e-02      4.00682e-01      5.00000e+00      8.68564e-07
    2.70875e-02      3.88601e-01      5.00000e+00      8.41948e-07
    2.75231e-02      3.76326e-01      5.00000e+00      8.14903e-07
    2.79658e-02      3.63852e-01      5.00000e+00      7.87420e-07
    2.84156e-02      3.51177e-01      5.00000e+00      7.59495e-07
    2.88727e-02      3.38298e-01      5.00000e+00      7.31118e-07
    2.93371e-02      3.25210e-01      5.00000e+00      7.02284e-07
    2.98090e-02      3.11912e-01      5.00000e+00      6.72984e-07
    3.02886e-02      2.98398e-01      5.00000e+00      6.43211e-07
    3.07759e-02      2.84667e-01      5.00000e+00      6.12957e-07
    3.12710e-02      2.70714e-01      5.00000e+00      5.82215e-07
    3.17742e-02      2.56535e-01      5.00000e+00      5.50977e-07
    3.22855e-02      2.42128e-01      5.00000e+00      5.19235e-07
    3.28050e-02      2.27488e-01      5.00000e+00      4.86980e-07
    3.33329e-02      2.12612e-01      5.00000e+00      4.54205e-07
    3.38693e-02      1.97496e-01      5.00000e+00      4.20900e-07
    3.44144e-02      1.82136e-01      5.00000e+00      3.87058e-07
    3.49683e-02      1.66528e-01      5.00000e+00      3.52670e-07
    3.55311e-02      1.50667e-01      5.00000e+00      3.17727e-07
    3.61031e-02      1.34551e-01      5.00000e+00      2.82220e-07
    3.66842e-02      1.18175e-01      5.00000e+00      2.46139e-07
    3.72747e-02      1.01534e-01      5.00000e+00      2.09476e-07
    3.78748e-02      8.46253e-02      5.00000e+00      1.72221e-07
    3.84845e-02      6.74431e-02      5.00000e+00      1.34365e-07
    3.91041e-02      4.99836e-02      5.00000e+00      9.58983e-08
    3.97337e-02      3.22423e-02      5.00000e+00      5.68102e-08
    4.03735e-02      1.64446e-02      5.00000e+00      2.20340e-08
    4.10236e-02      1.61239e-02      5.00000e+00      2.15670e-08
    4.16841e-02      1.57981e-02      5.00000e+00      2.10924e-08
    4.23554e-02      1.54670e-02      5.00000e+00      2.06102e-08
    4.30374e-02      1.51306e-02      5.00000e+00      2.01202e-08
    4.37305e-02      1.47887e-02      5.00000e+00      1.96223e-08
    4.44348e-02      1.44414e-02      5.00000e+00      1.91164e-08
    4.51504e-02      1.40884e-02      5.00000e+00      1.86022e-08
    4.58776e-02      1.37297e-02      5.00000e+00      1.80798e-08
    4.66165e-02      1.33652e-02      5.00000e+00      1.75490e-08
    4.73674e-02      1.29949e-02      5.00000e+00      1.70096e-08
    4.81304e-02      1.26185e-02      5.00000e+00      1.64614e-08
    4.89056e-02      1.22361e-02      5.00000e+00      1.59045e-08
    4.96934e-02      1.18475e-02      5.00000e+00      1.53385e-08
    5.04940e-02      1.14527e-02      5.00000e+00      1.47634e-08
    5.13074e-02      1.10515e-02      5.00000e+00      1.41790e-08
    5.21340e-02      1.06438e-02      5.00000e+00      1.35852e-08
    5.29739e-02      1.02295e-02      5.00000e+00      1.29818e-08
    5.38274e-02      9.80851e-03      5.00000e+00      1.23687e-08
    5.46946e-02      9.38074e-03      5.00000e+00      1.17457e-08
    5.55758e-02      8.94607e-03      5.00000e+00      1.11126e-08
    5.64713e-02      8.50438e-03      5.00000e+00      1.04693e-08
    5.73812e-02      8.05556e-03      5.00000e+00      9.81556e-09
    5.83059e-02      7.59950e-03      5.00000e+00      9.15132e-09
    5.92454e-02      7.13607e-03      5.00000e+00      8.47635e-09
    6.02001e-02      6.66517e-03      5.00000e+00      7.79049e-09
    6.11702e-02      6.18666e-03      5.00000e+00      7.09356e-09
    6.21560e-02      5.70044e-03      5.00000e+00      6.38537e-09
    6.31577e-02      5.20636e-03      5.00000e+00      5.66576e-09
    6.41755e-02      4.70430e-03      5.00000e+00      4.93453e-09
    6.52098e-02      4.19415e-03      5.00000e+00      4.19150e-09
    6.62608e-02      3.67576e-03      5.00000e+00      3.43647e-09
    6.73287e-02      3.14900e-03      5.00000e+00      2.66926e-09
    6.84139e-02      2.61373e-03      5.00000e+00      1.88966e-09
    6.95166e-02      2.06983e-03      5.00000e+00      1.09748e-09
    7.06371e-02      1.54231e-03      5.00000e+00      3.29168e-10
    7.17757e-02      1.53975e-03      5.00000e+00      3.25841e-10
    7.29326e-02      1.53716e-03      5.00000e+00      3.22461e-10
    7.41083e-02      1.53452e-03      5.00000e+00      3.19026e-10
    7.53029e-02      1.53184e-03      5.00000e+00      3.15536e-10
    7.65168e-02      1.52911e-03      5.00000e+00      3.11989e-10
    7.77503e-02      1.52634e-03      5.00000e+00      3.08385e-10
    7.90037e-02      1.52353e-03      5.00000e+00      3.04723e-10
    8.02773e-02      1.52067e-03      5.00000e+00      3.01002e-10
    8.15715e-02      1.51777e-03      5.00000e+00      2.97220e-10
    8.28866e-02      1.51481e-03      5.00000e+00      2.93378e-10
    8.42229e-02      1.51182e-03      5.00000e+00      2.89473e-10
    8.55808e-02      1.50877e-03      5.00000e+00      2.85506e-10
    8.69606e-02      1.50567e-03      5.00000e+00      2.81475e-10
    8.83627e-02      1.50252e-03      5.00000e+00      2.77378e-10
    8.97874e-02      1.49933e-03      5.00000e+00      2.73215e-10
    9.12351e-02      1.49608e-03      5.00000e+00      2.68986e-10
    9.27061e-02      1.49278e-03      5.00000e+00      2.64687e-10
    9.42009e-02      1.48942e-03      5.00000e+00      2.60320e-10
    9.57199e-02      1.48601e-03      5.00000e+00      2.55882e-10
    9.72633e-02      1.48255e-03      5.00000e+00      2.51372e-10
    9.88317e-02      1.47903e-03      5.00000e+00      2.46790e-10
    1.00425e-01      1.47545e-03      5.00000e+00      2.42134e-10
    1.02045e-01      1.47200e-03      5.00000e+00      2.38870e-10
    1.03690e-01      1.46858e-03      5.00000e+00      2.36133e-10
    1.05362e-01      1.46509e-03      5.00000e+00      2.33352e-10
    1.07062e-01      1.46155e-03      5.00000e+00      2.30526e-10
    1.08788e-01      1.45796e-03      5.00000e+00      2.27655e-10
    1.10543e-01      1.45430e-03      5.00000e+00      2.24737e-10
    1.12325e-01      1.45059e-03      5.00000e+00      2.21772e-10
    1.14137e-01      1.44682e-03      5.00000e+00      2.18759e-10
    1.15977e-01      1.44298e-03      5.00000e+00      2.15698e-10
    1.17848e-01      1.43909e-03      5.00000e+00      2.12587e-10
    1.19749e-01      1.43513e-03      5.00000e+00      2.09426e-10
    1.21680e-01      1.43110e-03      5.00000e+00      2.06214e-10
    1.23642e-01      1.42701e-03      5.00000e+00      2.02950e-10
    1.25637e-01      1.42286e-03      5.00000e+00      1.99634e-10
    1.27663e-01      1.41864e-03      5.00000e+00      1.96264e-10
    1.29722e-01      1.41435e-03      5.00000e+00      1.92839e-10
    1.31814e-01      1.41009e-03      5.00000e+00      1.89734e-10
    1.33940e-01      1.40597e-03      5.00000e+00      1.87436e-10
    1.36101e-01      1.40178e-03      5.00000e+00      1.85101e-10
    1.38296e-01      1.39752e-03      5.00000e+00      1.82729e-10
    1.40527e-01      1.39320e-03      5.00000e+00      1.80318e-10
    1.42794e-01      1.38881e-03      5.00000e+00      1.77868e-10
    1.45097e-01      1.38435e-03      5.00000e+00      1.75379e-10
    1.47437e-01      1.37981e-03      5.00000e+00      1.72849e-10
    1.49816e-01      1.37520e-03      5.00000e+00      1.70279e-10
    1.52232e-01      1.37052e-03      5.00000e+00      1.67667e-10
    1.54688e-01      1.36576e-03      5.00000e+00      1.65013e-10
    1.57183e-01      1.36092e-03      5.00000e+00      1.62316e-10
    1.59719e-01      1.35601e-03      5.00000e+00      1.59576e-10
    1.62295e-01      1.35112e-03      5.00000e+00      1.57055e-10
    1.64913e-01      1.34637e-03      5.00000e+00      1.55059e-10
    1.67574e-01      1.34154e-03      5.00000e+00      1.53030e-10
    1.70277e-01      1.33664e-03      5.00000e+00      1.50968e-10
    1.73024e-01      1.33165e-03      5.00000e+00      1.48873e-10
    1.75815e-01      1.32659e-03      5.00000e+00      1.46745e-10
    1.78652e-01      1.32144e-03      5.00000e+00      1.44581e-10
    1.81534e-01      1.31621e-03      5.00000e+00      1.42383e-10
    1.84462e-01      1.31090e-03      5.00000e+00      1.40150e-10
    1.87438e-01      1.30550e-03      5.00000e+00      1.37880e-10
    1.90462e-01      1.30001e-03      5.00000e+00      1.35574e-10
    1.93535e-01      1.29463e-03      5.00000e+00      1.33574e-10
    1.96657e-01      1.28930e-03      5.00000e+00      1.31797e-10
    1.99830e-01      1.28388e-03      5.00000e+00      1.29990e-10
    2.03054e-01      1.27838e-03      5.00000e+00      1.28155e-10
    2.06330e-01      1.27279e-03      5.00000e+00      1.26289e-10
    2.09659e-01      1.26711e-03      5.00000e+00      1.24394e-10
    2.13042e-01      1.26133e-03      5.00000e+00      1.22468e-10
    2.16479e-01      1.25547e-03      5.00000e+00      1.20511e-10
    2.19971e-01      1.24951e-03      5.00000e+00      1.18523e-10
    2.23521e-01      1.24359e-03      5.00000e+00      1.16688e-10
    2.27127e-01      1.23779e-03      5.00000e+00      1.15092e-10
    2.30791e-01      1.23188e-03      5.00000e+00      1.13469e-10
    2.34515e-01      1.22589e-03      5.00000e+00      1.11820e-10
    2.38299e-01      1.21980e-03      5.00000e+00      1.10145e-10
    2.42144e-01      1.21360e-03      5.00000e+00      1.08443e-10
    2.46051e-01      1.20731e-03      5.00000e+00      1.06713e-10
    2.50021e-01      1.20092e-03      5.00000e+00      1.04955e-10
    2.54055e-01      1.19457e-03      5.00000e+00      1.03319e-10
    2.58154e-01      1.18832e-03      5.00000e+00      1.01863e-10
    2.62320e-01      1.18196e-03      5.00000e+00      1.00383e-10
    2.66552e-01      1.17551e-03      5.00000e+00      9.88800e-11
    2.70853e-01      1.16895e-03      5.00000e+00      9.73523e-11
    2.75224e-01      1.16228e-03      5.00000e+00      9.57999e-11
    2.79665e-01      1.15551e-03      5.00000e+00      9.42224e-11
    2.84177e-01      1.14875e-03      5.00000e+00      9.27170e-11
    2.88763e-01      1.14211e-03      5.00000e+00      9.13785e-11
    2.93422e-01      1.13537e-03      5.00000e+00      9.00183e-11
    2.98157e-01      1.12852e-03      5.00000e+00      8.86361e-11
    3.02968e-01      1.12156e-03      5.00000e+00      8.72317e-11
    3.07857e-01      1.11448e-03      5.00000e+00      8.58046e-11
    3.12825e-01      1.10730e-03      5.00000e+00      8.43545e-11
    3.17873e-01      1.10035e-03      5.00000e+00      8.31146e-11
    3.23002e-01      1.09329e-03      5.00000e+00      8.18598e-11
    3.28214e-01      1.08612e-03      5.00000e+00      8.05847e-11
    3.33510e-01      1.07884e-03      5.00000e+00      7.92891e-11
    3.38892e-01      1.07144e-03      5.00000e+00      7.79725e-11
    3.44361e-01      1.06399e-03      5.00000e+00      7.66760e-11
    3.49918e-01      1.05671e-03      5.00000e+00      7.55183e-11
    3.55564e-01      1.04931e-03      5.00000e+00      7.43419e-11
    3.61302e-01      1.04179e-03      5.00000e+00      7.31465e-11
    3.67133e-01      1.03415e-03      5.00000e+00      7.19317e-11
    3.73057e-01      1.02639e-03      5.00000e+00      7.06974e-11
    3.79077e-01      1.01884e-03      5.00000e+00      6.96020e-11
    3.85194e-01      1.01120e-03      5.00000e+00      6.85022e-11
    3.91411e-01      1.00343e-03      5.00000e+00      6.73846e-11
    3.97727e-01      9.95538e-04      5.00000e+00      6.62490e-11
    4.04145e-01      9.87537e-04      5.00000e+00      6.51027e-11
    4.10667e-01      9.79754e-04      5.00000e+00      6.40794e-11
    4.17294e-01      9.71846e-04      5.00000e+00      6.30396e-11
    4.24029e-01      9.63810e-04      5.00000e+00      6.19830e-11
    4.30872e-01      9.55644e-04      5.00000e+00      6.09093e-11
    4.37825e-01      9.47541e-04      5.00000e+00      5.98876e-11
    4.44890e-01      9.39478e-04      5.00000e+00      5.89105e-11
    4.52070e-01      9.31285e-04      5.00000e+00      5.79177e-11
    4.59366e-01      9.22959e-04      5.00000e+00      5.69088e-11
    4.66779e-01      9.14617e-04      5.00000e+00      5.59204e-11
    4.74312e-01      9.06394e-04      5.00000e+00      5.49950e-11
    4.81966e-01      8.98039e-04      5.00000e+00      5.40547e-11
    4.89745e-01      8.89548e-04      5.00000e+00      5.30991e-11
    4.97648e-01      8.81056e-04      5.00000e+00      5.21663e-11
    5.05679e-01      8.72657e-04      5.00000e+00      5.12832e-11
    5.13840e-01      8.64123e-04      5.00000e+00      5.03858e-11
    5.22133e-01      8.55451e-04      5.00000e+00      4.94739e-11
    5.30559e-01      8.46876e-04      5.00000e+00      4.86080e-11
    5.39122e-01      8.38286e-04      5.00000e+00      4.77596e-11
    5.47823e-01      8.29558e-04      5.00000e+00      4.68976e-11
    5.56664e-01      8.20745e-04      5.00000e+00      4.60346e-11
    5.65648e-01      8.12101e-04      5.00000e+00      4.52286e-11
    5.74776e-01      8.03318e-04      5.00000e+00      4.44095e-11
    5.84053e-01      7.94393e-04      5.00000e+00      4.35773e-11
    5.93479e-01      7.85632e-04      5.00000e+00      4.27952e-11
    6.03057e-01      7.76790e-04      5.00000e+00      4.20129e-11
    6.12789e-01      7.67805e-04      5.00000e+00      4.12180e-11
    6.22679e-01      7.58921e-04      5.00000e+00      4.04579e-11
    6.32729e-01      7.50008e-04      5.00000e+00      3.97072e-11
    6.42940e-01      7.40950e-04      5.00000e+00      3.89445e-11
    6.53317e-01      7.31993e-04      5.00000e+00      3.82132e-11
    6.63861e-01      7.23003e-04      5.00000e+00      3.74901e-11
    6.74575e-01      7.13868e-04      5.00000e+00      3.67552e-11
    6.85462e-01      7.04881e-04      5.00000e+00      3.60571e-11
    6.96525e-01      6.95811e-04      5.00000e+00      3.53579e-11
    7.07766e-01      6.86626e-04      5.00000e+00      3.46523e-11
    7.19189e-01      6.77616e-04      5.00000e+00      3.39847e-11
    7.30796e-01      6.68460e-04      5.00000e+00      3.33064e-11
    7.42591e-01      6.59323e-04      5.00000e+00      3.26408e-11
    7.54576e-01      6.50228e-04      5.00000e+00      3.19916e-11
    7.66755e-01      6.40987e-04      5.00000e+00      3.13318e-11
    7.79130e-01      6.31928e-04      5.00000e+00      3.07061e-11
    7.91704e-01      6.22739e-04      5.00000e+00      3.00725e-11
    8.04482e-01      6.13584e-04      5.00000e+00      2.94521e-11
    8.17466e-01      6.04443e-04      5.00000e+00      2.88420e-11
    8.30660e-01      5.95225e-04      5.00000e+00      2.82307e-11
    8.44066e-01      5.86137e-04      5.00000e+00      2.76425e-11
    8.57689e-01      5.76902e-04      5.00000e+00      2.70448e-11
    8.71532e-01      5.67845e-04      5.00000e+00      2.64745e-11
    8.85599e-01      5.58655e-04      5.00000e+00      2.58964e-11
    8.99892e-01      5.49583e-04      5.00000e+00      2.53380e-11
    9.14416e-01      5.40433e-04      5.00000e+00      2.47781e-11
    9.29175e-01      5.31366e-04      5.00000e+00      2.42331e-11
    9.44171e-01      5.22253e-04      5.00000e+00      2.36895e-11
    9.59410e-01      5.13218e-04      5.00000e+00      2.31592e-11
    9.74895e-01      5.04147e-04      5.00000e+00      2.26309e-11
    9.90630e-01      4.95337e-04      5.00000e+00      2.21161e-11
    1.00662e+00      4.86550e-04      5.00000e+00      2.16019e-11
    1.02287e+00      4.77679e-04      5.00000e+00      2.11030e-11
    1.03937e+00      4.68679e-04      5.00000e+00      2.06015e-11
    1.05615e+00      4.59837e-04      5.00000e+00      2.01186e-11
    1.07320e+00      4.50919e-04      5.00000e+00      1.96334e-11
    1.09052e+00      4.42118e-04      5.00000e+00      1.91622e-11
    1.10812e+00      4.33310e-04      5.00000e+00      1.86942e-11
    1.12600e+00      4.24538e-04      5.00000e+00      1.82331e-11
    1.14418e+00      4.15853e-04      5.00000e+00      1.77821e-11
