    Er (keV)         SM dN/dE         BG dN/dE        BSM dN/dE (events/kg/day/keV)
    1.01000e-02      2.47699e+02      5.00000e+00      3.31837e-16
    1.02614e-02      2.47060e+02      5.00000e+00      3.54407e-16
    1.04254e-02      2.46409e+02      5.00000e+00      3.77341e-16
    1.05921e-02      2.45749e+02      5.00000e+00      4.00645e-16
    1.07615e-02      2.45077e+02      5.00000e+00      4.24325e-16
    1.09336e-02      2.44395e+02      5.00000e+00      4.48387e-16
    1.11084e-02      2.43702e+02      5.00000e+00      4.72838e-16
    1.12861e-02      2.42998e+02      5.00000e+00      4.97684e-16
    1.14667e-02      2.42282e+02      5.00000e+00      5.22930e-16
    1.16502e-02      2.41555e+02      5.00000e+00      5.48584e-16
    1.18366e-02      2.40816e+02      5.00000e+00      5.74653e-16
    1.20261e-02      2.40065e+02      5.00000e+00      6.01141e-16
    1.22186e-02      2.39302e+02      5.00000e+00      6.28058e-16
    1.24142e-02      2.38526e+02      5.00000e+00      6.55409e-16
    1.26129e-02      2.37738e+02      5.00000e+00      6.83201e-16
    1.28149e-02      2.36938e+02      5.00000e+00      7.11443e-16
    1.30202e-02      2.36124e+02      5.00000e+00      7.40139e-16
    1.32287e-02      2.35298e+02      5.00000e+00      7.69300e-16
    1.34406e-02      2.34458e+02      5.00000e+00      7.98931e-16
    1.36560e-02      2.33604e+02      5.00000e+00      8.29040e-16
    1.38748e-02      2.32737e+02      5.00000e+00      8.59635e-16
    1.40971e-02      2.31855e+02      5.00000e+00      8.90724e-16
    1.43231e-02      2.30960e+02      5.00000e+00      9.22315e-16
    1.45527e-02      2.30050e+02      5.00000e+00      9.54415e-16
    1.47859e-02      2.29125e+02      5.00000e+00      9.87034e-16
    1.50230e-02      2.28185e+02      5.00000e+00      1.02018e-15
    1.52639e-02      2.27230e+02      5.00000e+00      1.05386e-15
    1.55086e-02      2.26260e+02      5.00000e+00      1.08808e-15
    1.57574e-02      2.25274e+02      5.00000e+00      1.12286e-15
    1.60101e-02      2.24273e+02      5.00000e+00      1.15820e-15
    1.62669e-02      2.23255e+02      5.00000e+00      1.19411e-15
    1.65279e-02      2.22220e+02      5.00000e+00      1.23060e-15
    1.67931e-02      2.21169e+02      5.00000e+00      1.26767e-15
    1.70625e-02      2.20101e+02      5.00000e+00      1.30535e-15
    1.73363e-02      2.19016e+02      5.00000e+00      1.34363e-15
    1.76145e-02      2.17913e+02      5.00000e+00      1.38253e-15
    1.78972e-02      2.16792e+02      5.00000e+00      1.42206e-15
    1.81845e-02      2.15653e+02      5.00000e+00      1.46223e-15
    1.84764e-02      2.14496e+02      5.00000e+00      1.50305e-15
    1.87731e-02      2.13321e+02      5.00000e+00      1.54452e-15
    1.90745e-02      2.12126e+02      5.00000e+00      1.58666e-15
    1.93808e-02      2.10912e+02      5.00000e+00      1.62949e-15
    1.96920e-02      2.09678e+02      5.00000e+00      1.67300e-15
    2.00082e-02      2.08425e+02      5.00000e+00      1.71722e-15
    2.03296e-02      2.07151e+02      5.00000e+00      1.76215e-15
    2.06561e-02      2.05856e+02      5.00000e+00      1.80781e-15
    2.09879e-02      2.04541e+02      5.00000e+00      1.85421e-15
    2.13251e-02      2.03205e+02      5.00000e+00      1.90135e-15
    2.16677e-02      2.01847e+02      5.00000e+00      1.94925e-15
    2.20158e-02      2.00467e+02      5.00000e+00      1.99793e-15
    2.23696e-02      1.99064e+02      5.00000e+00      2.04739e-15
    2.27291e-02      1.97640e+02      5.00000e+00      2.09765e-15
    2.30943e-02      1.96192e+02      5.00000e+00      2.14873e-15
    2.34655e-02      1.94720e+02      5.00000e+00      2.20062e-15
    2.38426e-02      1.93225e+02      5.00000e+00      2.25336e-15
    2.42259e-02      1.91706e+02      5.00000e+00      2.30694e-15
    2.46153e-02      1.90163e+02      5.00000e+00      2.36140e-15
    2.50110e-02      1.88594e+02      5.00000e+00      2.41673e-15
    2.54131e-02      1.87000e+02      5.00000e+00      2.47295e-15
    2.58217e-02      1.85381e+02      5.00000e+00      2.53008e-15
    2.62369e-02      1.83735e+02      5.00000e+00      2.58813e-15
    2.66588e-02      1.82062e+02      5.00000e+00      2.64712e-15
    2.70875e-02      1.80363e+02      5.00000e+00      2.70706e-15
    2.75231e-02      1.78636e+02      5.00000e+00      2.76797e-15
    2.79658e-02      1.76882e+02      5.00000e+00      2.82987e-15
    2.84156e-02      1.75099e+02      5.00000e+00      2.89276e-15
    2.88727e-02      1.73287e+02      5.00000e+00      2.95666e-15
    2.93371e-02      1.71446e+02      5.00000e+00      3.02160e-15
    2.98090e-02      1.69575e+02      5.00000e+00      3.08759e-15
    3.02886e-02      1.67675e+02      5.00000e+00      3.15464e-15
    3.07759e-02      1.65743e+02      5.00000e+00      3.22278e-15
    3.12710e-02      1.63780e+02      5.00000e+00      3.29201e-15
    3.17742e-02      1.61786e+02      5.00000e+00      3.36236e-15
    3.22855e-02      1.59759e+02      5.00000e+00      3.43385e-15
    3.28050e-02      1.57700e+02      5.00000e+00      3.50649e-15
    3.33329e-02      1.55607e+02      5.00000e+00      3.58030e-15
    3.38693e-02      1.53481e+02      5.00000e+00      3.65531e-15
    3.44144e-02      1.51320e+02      5.00000e+00      3.73152e-15
    3.49683e-02      1.49125e+02      5.00000e+00      3.80897e-15
    3.55311e-02      1.46894e+02      5.00000e+00      3.88767e-15
    3.61031e-02      1.44627e+02      5.00000e+00      3.96763e-15
    3.66842e-02      1.42323e+02      5.00000e+00      4.04889e-15
    3.72747e-02      1.39982e+02      5.00000e+00      4.13146e-15
    3.78748e-02      1.37604e+02      5.00000e+00      4.21536e-15
    3.84845e-02      1.35187e+02      5.00000e+00      4.30062e-15
    3.91041e-02      1.32731e+02      5.00000e+00      4.38725e-15
    3.97337e-02      1.30235e+02      5.00000e+00      4.47528e-15
    4.03735e-02      1.27910e+02      5.00000e+00      4.57700e-15
    4.10236e-02      1.27037e+02      5.00000e+00      4.76696e-15
    4.16841e-02      1.26149e+02      5.00000e+00      4.95999e-15
    4.23554e-02      1.25246e+02      5.00000e+00      5.15613e-15
    4.30374e-02      1.24329e+02      5.00000e+00      5.35543e-15
    4.37305e-02      1.23398e+02      5.00000e+00      5.55796e-15
    4.44348e-02      1.22451e+02      5.00000e+00      5.76375e-15
    4.51504e-02      1.21489e+02      5.00000e+00      5.97286e-15
    4.58776e-02      1.20512e+02      5.00000e+00      6.18535e-15
    4.66165e-02      1.19518e+02      5.00000e+00      6.40127e-15
    4.73674e-02      1.18509e+02      5.00000e+00      6.62068e-15
    4.81304e-02      1.17484e+02      5.00000e+00      6.84362e-15
    4.89056e-02      1.16441e+02      5.00000e+00      7.07017e-15
    4.96934e-02      1.15382e+02      5.00000e+00      7.30037e-15
    5.04940e-02      1.14306e+02      5.00000e+00      7.53429e-15
    5.13074e-02      1.13213e+02      5.00000e+00      7.77198e-15
    5.21340e-02      1.12102e+02      5.00000e+00      8.01351e-15
    5.29739e-02      1.10973e+02      5.00000e+00      8.25894e-15
    5.38274e-02      1.09826e+02      5.00000e+00      8.50833e-15
    5.46946e-02      1.08660e+02      5.00000e+00      8.76175e-15
    5.55758e-02      1.07475e+02      5.00000e+00      9.01925e-15
    5.64713e-02      1.06272e+02      5.00000e+00      9.28092e-15
    5.73812e-02      1.05049e+02      5.00000e+00      9.54680e-15
    5.83059e-02      1.03806e+02      5.00000e+00      9.81698e-15
    5.92454e-02      1.02543e+02      5.00000e+00      1.00915e-14
    6.02001e-02      1.01259e+02      5.00000e+00      1.03705e-14
    6.11702e-02      9.99554e+01      5.00000e+00      1.06540e-14
    6.21560e-02      9.86304e+01      5.00000e+00      1.09420e-14
    6.31577e-02      9.72839e+01      5.00000e+00      1.12347e-14
    6.41755e-02      9.59157e+01      5.00000e+00      1.15321e-14
    6.52098e-02      9.45254e+01      5.00000e+00      1.18344e-14
    6.62608e-02      9.31127e+01      5.00000e+00      1.21415e-14
    6.73287e-02      9.16772e+01      5.00000e+00      1.24535e-14
    6.84139e-02      9.02185e+01      5.00000e+00      1.27706e-14
    6.95166e-02      8.87362e+01      5.00000e+00      1.30928e-14
    7.06371e-02      8.72587e+01      5.00000e+00      1.34294e-14
    7.17757e-02      8.63653e+01      5.00000e+00      1.39642e-14
    7.29326e-02      8.54575e+01      5.00000e+00      1.45076e-14
    7.41083e-02      8.45350e+01      5.00000e+00      1.50599e-14
    7.53029e-02      8.35976e+01      5.00000e+00      1.56210e-14
    7.65168e-02      8.26451e+01      5.00000e+00      1.61912e-14
    7.77503e-02      8.16772e+01      5.00000e+00      1.67706e-14
    7.90037e-02      8.06937e+01      5.00000e+00      1.73594e-14
    8.02773e-02      7.96943e+01      5.00000e+00      1.79576e-14
    8.15715e-02      7.86788e+01      5.00000e+00      1.85655e-14
    8.28866e-02      7.76469e+01      5.00000e+00      1.91833e-14
    8.42229e-02      7.65983e+01      5.00000e+00      1.98110e-14
    8.55808e-02      7.55328e+01      5.00000e+00      2.04488e-14
    8.69606e-02      7.44501e+01      5.00000e+00      2.10969e-14
    8.83627e-02      7.33499e+01      5.00000e+00      2.17555e-14
    8.97874e-02      7.22320e+01      5.00000e+00      2.24247e-14
    9.12351e-02      7.10960e+01      5.00000e+00      2.31048e-14
    9.27061e-02      6.99417e+01      5.00000e+00      2.37958e-14
    9.42009e-02      6.87688e+01      5.00000e+00      2.44979e-14
    9.57199e-02      6.75769e+01      5.00000e+00      2.52114e-14
    9.72633e-02      6.63658e+01      5.00000e+00      2.59364e-14
    9.88317e-02      6.51351e+01      5.00000e+00      2.66731e-14
    1.00425e-01      6.38846e+01      5.00000e+00      2.74217e-14
    1.02045e-01      6.29332e+01      5.00000e+00      2.83384e-14
    1.03690e-01      6.20926e+01      5.00000e+00      2.93316e-14
    1.05362e-01      6.12384e+01      5.00000e+00      3.03409e-14
    1.07062e-01      6.03705e+01      5.00000e+00      3.13664e-14
    1.08788e-01      5.94885e+01      5.00000e+00      3.24085e-14
    1.10543e-01      5.85923e+01      5.00000e+00      3.34673e-14
    1.12325e-01      5.76816e+01      5.00000e+00      3.45433e-14
    1.14137e-01      5.67562e+01      5.00000e+00      3.56367e-14
    1.15977e-01      5.58159e+01      5.00000e+00      3.67477e-14
    1.17848e-01      5.48604e+01      5.00000e+00      3.78766e-14
    1.19749e-01      5.38895e+01      5.00000e+00      3.90238e-14
    1.21680e-01      5.29029e+01      5.00000e+00      4.01895e-14
    1.23642e-01      5.19004e+01      5.00000e+00      4.13740e-14
    1.25637e-01      5.08817e+01      5.00000e+00      4.25776e-14
    1.27663e-01      4.98466e+01      5.00000e+00      4.38006e-14
    1.29722e-01      4.87947e+01      5.00000e+00      4.50434e-14
    1.31814e-01      4.78267e+01      5.00000e+00      4.64006e-14
    1.33940e-01      4.70743e+01      5.00000e+00      4.79961e-14
    1.36101e-01      4.63098e+01      5.00000e+00      4.96174e-14
    1.38296e-01      4.55329e+01      5.00000e+00      5.12648e-14
    1.40527e-01      4.47435e+01      5.00000e+00      5.29389e-14
    1.42794e-01      4.39413e+01      5.00000e+00      5.46399e-14
    1.45097e-01      4.31262e+01      5.00000e+00      5.63684e-14
    1.47437e-01      4.22979e+01      5.00000e+00      5.81248e-14
    1.49816e-01      4.14563e+01      5.00000e+00      5.99096e-14
    1.52232e-01      4.06011e+01      5.00000e+00      6.17231e-14
    1.54688e-01      3.97320e+01      5.00000e+00      6.35660e-14
    1.57183e-01      3.88490e+01      5.00000e+00      6.54386e-14
    1.59719e-01      3.79517e+01      5.00000e+00      6.73414e-14
    1.62295e-01      3.71211e+01      5.00000e+00      6.93955e-14
    1.64913e-01      3.64508e+01      5.00000e+00      7.17403e-14
    1.67574e-01      3.57696e+01      5.00000e+00      7.41230e-14
    1.70277e-01      3.50774e+01      5.00000e+00      7.65442e-14
    1.73024e-01      3.43741e+01      5.00000e+00      7.90044e-14
    1.75815e-01      3.36594e+01      5.00000e+00      8.15044e-14
    1.78652e-01      3.29331e+01      5.00000e+00      8.40447e-14
    1.81534e-01      3.21952e+01      5.00000e+00      8.66259e-14
    1.84462e-01      3.14453e+01      5.00000e+00      8.92489e-14
    1.87438e-01      3.06833e+01      5.00000e+00      9.19142e-14
    1.90462e-01      2.99090e+01      5.00000e+00      9.46225e-14
    1.93535e-01      2.92342e+01      5.00000e+00      9.76301e-14
    1.96657e-01      2.86313e+01      5.00000e+00      1.00875e-13
    1.99830e-01      2.80187e+01      5.00000e+00      1.04173e-13
    2.03054e-01      2.73963e+01      5.00000e+00      1.07524e-13
    2.06330e-01      2.67638e+01      5.00000e+00      1.10929e-13
    2.09659e-01      2.61210e+01      5.00000e+00      1.14389e-13
    2.13042e-01      2.54679e+01      5.00000e+00      1.17905e-13
    2.16479e-01      2.48043e+01      5.00000e+00      1.21478e-13
    2.19971e-01      2.41299e+01      5.00000e+00      1.25108e-13
    2.23521e-01      2.35112e+01      5.00000e+00      1.29007e-13
    2.27127e-01      2.29782e+01      5.00000e+00      1.33270e-13
    2.30791e-01      2.24365e+01      5.00000e+00      1.37603e-13
    2.34515e-01      2.18861e+01      5.00000e+00      1.42005e-13
    2.38299e-01      2.13268e+01      5.00000e+00      1.46478e-13
    2.42144e-01      2.07585e+01      5.00000e+00      1.51024e-13
    2.46051e-01      2.01810e+01      5.00000e+00      1.55642e-13
    2.50021e-01      1.95942e+01      5.00000e+00      1.60336e-13
    2.54055e-01      1.90529e+01      5.00000e+00      1.65347e-13
    2.58154e-01      1.85786e+01      5.00000e+00      1.70774e-13
    2.62320e-01      1.80967e+01      5.00000e+00      1.76288e-13
    2.66552e-01      1.76070e+01      5.00000e+00      1.81891e-13
    2.70853e-01      1.71093e+01      5.00000e+00      1.87584e-13
    2.75224e-01      1.66037e+01      5.00000e+00      1.93369e-13
    2.79665e-01      1.60898e+01      5.00000e+00      1.99248e-13
    2.84177e-01      1.56050e+01      5.00000e+00      2.05438e-13
    2.88763e-01      1.51854e+01      5.00000e+00      2.12153e-13
    2.93422e-01      1.47591e+01      5.00000e+00      2.18976e-13
    2.98157e-01      1.43258e+01      5.00000e+00      2.25909e-13
    3.02968e-01      1.38856e+01      5.00000e+00      2.32954e-13
    3.07857e-01      1.34383e+01      5.00000e+00      2.40113e-13
    3.12825e-01      1.29837e+01      5.00000e+00      2.47388e-13
    3.17873e-01      1.26131e+01      5.00000e+00      2.55473e-13
    3.23002e-01      1.22384e+01      5.00000e+00      2.63703e-13
    3.28214e-01      1.18578e+01      5.00000e+00      2.72066e-13
    3.33510e-01      1.14709e+01      5.00000e+00      2.80564e-13
    3.38892e-01      1.10778e+01      5.00000e+00      2.89200e-13
    3.44361e-01      1.06945e+01      5.00000e+00      2.98133e-13
    3.49918e-01      1.03675e+01      5.00000e+00      3.07823e-13
    3.55564e-01      1.00352e+01      5.00000e+00      3.17669e-13
    3.61302e-01      9.69749e+00      5.00000e+00      3.27675e-13
    3.67133e-01      9.35435e+00      5.00000e+00      3.37842e-13
    3.73057e-01      9.00567e+00      5.00000e+00      3.48173e-13
    3.79077e-01      8.71266e+00      5.00000e+00      3.59438e-13
    3.85194e-01      8.42005e+00      5.00000e+00      3.70950e-13
    3.91411e-01      8.12272e+00      5.00000e+00      3.82647e-13
    3.97727e-01      7.82059e+00      5.00000e+00      3.94533e-13
    4.04145e-01      7.51653e+00      5.00000e+00      4.06656e-13
    4.10667e-01      7.26156e+00      5.00000e+00      4.19801e-13
    4.17294e-01      7.00248e+00      5.00000e+00      4.33158e-13
    4.24029e-01      6.73922e+00      5.00000e+00      4.46731e-13
    4.30872e-01      6.47170e+00      5.00000e+00      4.60522e-13
    4.37825e-01      6.22512e+00      5.00000e+00      4.75026e-13
    4.44890e-01      5.99681e+00      5.00000e+00      4.90195e-13
    4.52070e-01      5.76481e+00      5.00000e+00      5.05609e-13
    4.59366e-01      5.52906e+00      5.00000e+00      5.21271e-13
    4.66779e-01      5.30288e+00      5.00000e+00      5.37497e-13
    4.74312e-01      5.10169e+00      5.00000e+00      5.54651e-13
    4.81966e-01      4.89726e+00      5.00000e+00      5.72081e-13
    4.89745e-01      4.68952e+00      5.00000e+00      5.89793e-13
    4.97648e-01      4.49165e+00      5.00000e+00      6.08171e-13
    5.05679e-01      4.31300e+00      5.00000e+00      6.27492e-13
    5.13840e-01      4.13147e+00      5.00000e+00      6.47125e-13
    5.22133e-01      3.94701e+00      5.00000e+00      6.67075e-13
    5.30559e-01      3.77984e+00      5.00000e+00      6.88059e-13
    5.39122e-01      3.62048e+00      5.00000e+00      7.09752e-13
    5.47823e-01      3.45855e+00      5.00000e+00      7.31795e-13
    5.56664e-01      3.29815e+00      5.00000e+00      7.54369e-13
    5.65648e-01      3.15773e+00      5.00000e+00      7.78267e-13
    5.74776e-01      3.01504e+00      5.00000e+00      8.02550e-13
    5.84053e-01      2.87005e+00      5.00000e+00      8.27225e-13
    5.93479e-01      2.74172e+00      5.00000e+00      8.53287e-13
    6.03057e-01      2.61502e+00      5.00000e+00      8.79962e-13
    6.12789e-01      2.48627e+00      5.00000e+00      9.07068e-13
    6.22679e-01      2.36896e+00      5.00000e+00      9.35462e-13
    6.32729e-01      2.25594e+00      5.00000e+00      9.64703e-13
    6.42940e-01      2.14110e+00      5.00000e+00      9.94417e-13
    6.53317e-01      2.03619e+00      5.00000e+00      1.02549e-12
    6.63861e-01      1.93495e+00      5.00000e+00      1.05746e-12
    6.74575e-01      1.83208e+00      5.00000e+00      1.08995e-12
    6.85462e-01      1.73994e+00      5.00000e+00      1.12407e-12
    6.96525e-01      1.64893e+00      5.00000e+00      1.15897e-12
    7.07766e-01      1.55765e+00      5.00000e+00      1.19456e-12
    7.19189e-01      1.47700e+00      5.00000e+00      1.23199e-12
    7.30796e-01      1.39505e+00      5.00000e+00      1.27003e-12
    7.42591e-01      1.31730e+00      5.00000e+00      1.30934e-12
    7.54576e-01      1.24457e+00      5.00000e+00      1.35005e-12
    7.66755e-01      1.17067e+00      5.00000e+00      1.39141e-12
    7.79130e-01      1.10558e+00      5.00000e+00      1.43486e-12
    7.91704e-01      1.03992e+00      5.00000e+00      1.47908e-12
    8.04482e-01      9.78105e-01      5.00000e+00      1.52482e-12
    8.17466e-01      9.19578e-01      5.00000e+00      1.57202e-12
    8.30660e-01      8.61956e-01      5.00000e+00      1.62031e-12
    8.44066e-01      8.10542e-01      5.00000e+00      1.67063e-12
    8.57689e-01      7.58298e-01      5.00000e+00      1.72176e-12
    8.71532e-01      7.10727e-01      5.00000e+00      1.77527e-12
    8.85599e-01      6.62604e-01      5.00000e+00      1.82971e-12
    8.99892e-01      6.19403e-01      5.00000e+00      1.88636e-12
    9.14416e-01      5.76978e-01      5.00000e+00      1.94426e-12
    9.29175e-01      5.37868e-01      5.00000e+00      2.00430e-12
    9.44171e-01      4.99838e-01      5.00000e+00      2.06581e-12
    9.59410e-01      4.64637e-01      5.00000e+00      2.12952e-12
    9.74895e-01      4.30530e-01      5.00000e+00      2.19483e-12
    9.90630e-01      3.99158e-01      5.00000e+00      2.29152e-12
    1.00662e+00      3.68606e-01      5.00000e+00      2.40202e-12
    1.02287e+00      3.40881e-01      5.00000e+00      2.48371e-12
    1.03937e+00      3.13487e-01      5.00000e+00      2.55954e-12
    1.05615e+00      2.89233e-01      5.00000e+00      2.63847e-12
    1.07320e+00      2.65282e-01      5.00000e+00      2.71909e-12
    1.09052e+00      2.43691e-01      5.00000e+00      2.80269e-12
    1.10812e+00      2.23157e-01      5.00000e+00      2.88851e-12
    1.12600e+00      2.04182e-01      5.00000e+00      2.97688e-12
    1.14418e+00      1.86243e-01      5.00000e+00      3.06822e-12
