    Er (keV)         SM dN/dE         BG dN/dE        BSM dN/dE (events/kg/day/keV)
    1.00100e-01      1.47613e-03      1.00000e+02      3.02618e-15
    1.01247e-01      1.47373e-03      1.00000e+02      3.10519e-15
    1.02408e-01      1.47131e-03      1.00000e+02      3.18512e-15
    1.03582e-01      1.46886e-03      1.00000e+02      3.26596e-15
    1.04769e-01      1.46638e-03      1.00000e+02      3.34773e-15
    1.05970e-01      1.46387e-03      1.00000e+02      3.43043e-15
    1.07184e-01      1.46134e-03      1.00000e+02      3.51409e-15
    1.08413e-01      1.45877e-03      1.00000e+02      3.59870e-15
    1.09655e-01      1.45618e-03      1.00000e+02      3.68429e-15
    1.10912e-01      1.45355e-03      1.00000e+02      3.77085e-15
    1.12184e-01      1.45090e-03      1.00000e+02      3.85841e-15
    1.13470e-01      1.44821e-03      1.00000e+02      3.94698e-15
    1.14770e-01      1.44550e-03      1.00000e+02      4.03656e-15
    1.16086e-01      1.44275e-03      1.00000e+02      4.12717e-15
    1.17417e-01      1.43997e-03      1.00000e+02      4.21882e-15
    1.18763e-01      1.43716e-03      1.00000e+02      4.31152e-15
    1.20124e-01      1.43432e-03      1.00000e+02      4.40528e-15
    1.21501e-01      1.43145e-03      1.00000e+02      4.50012e-15
    1.22894e-01      1.42854e-03      1.00000e+02      4.59605e-15
    1.24303e-01      1.42560e-03      1.00000e+02      4.69308e-15
    1.25728e-01      1.42262e-03      1.00000e+02      4.79122e-15
    1.27169e-01      1.41961e-03      1.00000e+02      4.89049e-15
    1.28627e-01      1.41657e-03      1.00000e+02      4.99089e-15
    1.30101e-01      1.41349e-03      1.00000e+02      5.09245e-15
    1.31593e-01      1.41058e-03      1.00000e+02      5.21983e-15
    1.33101e-01      1.40765e-03      1.00000e+02      5.35047e-15
    1.34627e-01      1.40468e-03      1.00000e+02      5.48261e-15
    1.36171e-01      1.40168e-03      1.00000e+02      5.61627e-15
    1.37732e-01      1.39865e-03      1.00000e+02      5.75146e-15
    1.39311e-01      1.39559e-03      1.00000e+02      5.88821e-15
    1.40908e-01      1.39248e-03      1.00000e+02      6.02652e-15
    1.42523e-01      1.38935e-03      1.00000e+02      6.16642e-15
    1.44157e-01      1.38617e-03      1.00000e+02      6.30792e-15
    1.45810e-01      1.38296e-03      1.00000e+02      6.45105e-15
    1.47482e-01      1.37971e-03      1.00000e+02      6.59582e-15
    1.49173e-01      1.37643e-03      1.00000e+02      6.74225e-15
    1.50883e-01      1.37311e-03      1.00000e+02      6.89036e-15
    1.52613e-01      1.36975e-03      1.00000e+02      7.04017e-15
    1.54363e-01      1.36635e-03      1.00000e+02      7.19169e-15
    1.56133e-01      1.36291e-03      1.00000e+02      7.34496e-15
    1.57923e-01      1.35943e-03      1.00000e+02      7.49999e-15
    1.59733e-01      1.35592e-03      1.00000e+02      7.65679e-15
    1.61565e-01      1.35250e-03      1.00000e+02      7.83577e-15
    1.63417e-01      1.34913e-03      1.00000e+02      8.02870e-15
    1.65291e-01      1.34573e-03      1.00000e+02      8.22385e-15
    1.67186e-01      1.34228e-03      1.00000e+02      8.42124e-15
    1.69103e-01      1.33879e-03      1.00000e+02      8.62089e-15
    1.71042e-01      1.33527e-03      1.00000e+02      8.82283e-15
    1.73003e-01      1.33170e-03      1.00000e+02      9.02709e-15
    1.74987e-01      1.32809e-03      1.00000e+02      9.23370e-15
    1.76994e-01      1.32444e-03      1.00000e+02      9.44267e-15
    1.79023e-01      1.32075e-03      1.00000e+02      9.65404e-15
    1.81076e-01      1.31702e-03      1.00000e+02      9.86784e-15
    1.83152e-01      1.31324e-03      1.00000e+02      1.00841e-14
    1.85252e-01      1.30942e-03      1.00000e+02      1.03028e-14
    1.87377e-01      1.30556e-03      1.00000e+02      1.05241e-14
    1.89525e-01      1.30165e-03      1.00000e+02      1.07478e-14
    1.91698e-01      1.29782e-03      1.00000e+02      1.09933e-14
    1.93897e-01      1.29406e-03      1.00000e+02      1.12606e-14
    1.96120e-01      1.29025e-03      1.00000e+02      1.15311e-14
    1.98369e-01      1.28641e-03      1.00000e+02      1.18046e-14
    2.00644e-01      1.28252e-03      1.00000e+02      1.20813e-14
    2.02944e-01      1.27858e-03      1.00000e+02      1.23611e-14
    2.05272e-01      1.27460e-03      1.00000e+02      1.26442e-14
    2.07626e-01      1.27057e-03      1.00000e+02      1.29305e-14
    2.10006e-01      1.26650e-03      1.00000e+02      1.32200e-14
    2.12415e-01      1.26238e-03      1.00000e+02      1.35130e-14
    2.14851e-01      1.25821e-03      1.00000e+02      1.38092e-14
    2.17314e-01      1.25400e-03      1.00000e+02      1.41089e-14
    2.19806e-01      1.24973e-03      1.00000e+02      1.44120e-14
    2.22327e-01      1.24557e-03      1.00000e+02      1.47455e-14
    2.24877e-01      1.24145e-03      1.00000e+02      1.51009e-14
    2.27455e-01      1.23729e-03      1.00000e+02      1.54603e-14
    2.30064e-01      1.23308e-03      1.00000e+02      1.58239e-14
    2.32702e-01      1.22882e-03      1.00000e+02      1.61916e-14
    2.35371e-01      1.22451e-03      1.00000e+02      1.65636e-14
    2.38070e-01      1.22016e-03      1.00000e+02      1.69398e-14
    2.40800e-01      1.21575e-03      1.00000e+02      1.73203e-14
    2.43562e-01      1.21129e-03      1.00000e+02      1.77052e-14
    2.46355e-01      1.20679e-03      1.00000e+02      1.80945e-14
    2.49180e-01      1.20223e-03      1.00000e+02      1.84883e-14
    2.52038e-01      1.19770e-03      1.00000e+02      1.89037e-14
    2.54928e-01      1.19328e-03      1.00000e+02      1.93546e-14
    2.57852e-01      1.18881e-03      1.00000e+02      1.98107e-14
    2.60809e-01      1.18429e-03      1.00000e+02      2.02721e-14
    2.63800e-01      1.17972e-03      1.00000e+02      2.07387e-14
    2.66826e-01      1.17509e-03      1.00000e+02      2.12107e-14
    2.69886e-01      1.17041e-03      1.00000e+02      2.16881e-14
    2.72981e-01      1.16568e-03      1.00000e+02      2.21709e-14
    2.76112e-01      1.16089e-03      1.00000e+02      2.26594e-14
    2.79278e-01      1.15605e-03      1.00000e+02      2.31534e-14
    2.82481e-01      1.15125e-03      1.00000e+02      2.36754e-14
    2.85721e-01      1.14655e-03      1.00000e+02      2.42380e-14
    2.88998e-01      1.14180e-03      1.00000e+02      2.48070e-14
    2.92313e-01      1.13699e-03      1.00000e+02      2.53825e-14
    2.95665e-01      1.13213e-03      1.00000e+02      2.59646e-14
    2.99056e-01      1.12721e-03      1.00000e+02      2.65534e-14
    3.02486e-01      1.12224e-03      1.00000e+02      2.71490e-14
    3.05955e-01      1.11720e-03      1.00000e+02      2.77514e-14
    3.09464e-01      1.11211e-03      1.00000e+02      2.83607e-14
    3.13013e-01      1.10708e-03      1.00000e+02      2.90045e-14
    3.16603e-01      1.10213e-03      1.00000e+02      2.96895e-14
    3.20235e-01      1.09712e-03      1.00000e+02      3.03824e-14
    3.23908e-01      1.09206e-03      1.00000e+02      3.10832e-14
    3.27623e-01      1.08693e-03      1.00000e+02      3.17921e-14
    3.31380e-01      1.08175e-03      1.00000e+02      3.25091e-14
    3.35181e-01      1.07651e-03      1.00000e+02      3.32344e-14
    3.39025e-01      1.07121e-03      1.00000e+02      3.39679e-14
    3.42914e-01      1.06593e-03      1.00000e+02      3.47322e-14
    3.46847e-01      1.06077e-03      1.00000e+02      3.55502e-14
    3.50825e-01      1.05554e-03      1.00000e+02      3.63776e-14
    3.54849e-01      1.05026e-03      1.00000e+02      3.72145e-14
    3.58919e-01      1.04491e-03      1.00000e+02      3.80610e-14
    3.63035e-01      1.03950e-03      1.00000e+02      3.89172e-14
    3.67199e-01      1.03403e-03      1.00000e+02      3.97832e-14
    3.71411e-01      1.02850e-03      1.00000e+02      4.06592e-14
    3.75671e-01      1.02314e-03      1.00000e+02      4.16112e-14
    3.79980e-01      1.01774e-03      1.00000e+02      4.25812e-14
    3.84338e-01      1.01228e-03      1.00000e+02      4.35624e-14
    3.88747e-01      1.00676e-03      1.00000e+02      4.45548e-14
    3.93205e-01      1.00117e-03      1.00000e+02      4.55586e-14
    3.97716e-01      9.95518e-04      1.00000e+02      4.65739e-14
    4.02277e-01      9.89817e-04      1.00000e+02      4.76053e-14
    4.06891e-01      9.84296e-04      1.00000e+02      4.87245e-14
    4.11559e-01      9.78711e-04      1.00000e+02      4.98565e-14
    4.16279e-01      9.73063e-04      1.00000e+02      5.10015e-14
    4.21054e-01      9.67350e-04      1.00000e+02      5.21596e-14
    4.25883e-01      9.61571e-04      1.00000e+02      5.33310e-14
    4.30768e-01      9.55726e-04      1.00000e+02      5.45159e-14
    4.35709e-01      9.49995e-04      1.00000e+02      5.57699e-14
    4.40707e-01      9.44276e-04      1.00000e+02      5.70617e-14
    4.45762e-01      9.38490e-04      1.00000e+02      5.83683e-14
    4.50875e-01      9.32639e-04      1.00000e+02      5.96900e-14
    4.56047e-01      9.26720e-04      1.00000e+02      6.10268e-14
    4.61278e-01      9.20733e-04      1.00000e+02      6.23789e-14
    4.66569e-01      9.14884e-04      1.00000e+02      6.38184e-14
    4.71921e-01      9.09025e-04      1.00000e+02      6.52945e-14
    4.77334e-01      9.03099e-04      1.00000e+02      6.67875e-14
    4.82809e-01      8.97105e-04      1.00000e+02      6.82977e-14
    4.88347e-01      8.91042e-04      1.00000e+02      6.98251e-14
    4.93949e-01      8.84970e-04      1.00000e+02      7.13924e-14
    4.99615e-01      8.79027e-04      1.00000e+02      7.30502e-14
    5.05345e-01      8.73016e-04      1.00000e+02      7.47271e-14
    5.11142e-01      8.66936e-04      1.00000e+02      7.64233e-14
    5.17005e-01      8.60787e-04      1.00000e+02      7.81389e-14
    5.22936e-01      8.54571e-04      1.00000e+02      7.98759e-14
    5.28934e-01      8.48536e-04      1.00000e+02      8.17314e-14
    5.35001e-01      8.42431e-04      1.00000e+02      8.36082e-14
    5.41138e-01      8.36256e-04      1.00000e+02      8.55065e-14
    5.47345e-01      8.30010e-04      1.00000e+02      8.74266e-14
    5.53624e-01      8.23717e-04      1.00000e+02      8.93787e-14
    5.59974e-01      8.17588e-04      1.00000e+02      9.14491e-14
    5.66398e-01      8.11388e-04      1.00000e+02      9.35432e-14
    5.72895e-01      8.05117e-04      1.00000e+02      9.56614e-14
    5.79466e-01      7.98774e-04      1.00000e+02      9.78039e-14
    5.86113e-01      7.92471e-04      1.00000e+02      1.00023e-13
    5.92837e-01      7.86245e-04      1.00000e+02      1.02335e-13
    5.99637e-01      7.79946e-04      1.00000e+02      1.04674e-13
    6.06516e-01      7.73576e-04      1.00000e+02      1.07040e-13
    6.13473e-01      7.67134e-04      1.00000e+02      1.09433e-13
    6.20510e-01      7.60872e-04      1.00000e+02      1.11962e-13
    6.27628e-01      7.54538e-04      1.00000e+02      1.14520e-13
    6.34827e-01      7.48131e-04      1.00000e+02      1.17107e-13
    6.42110e-01      7.41651e-04      1.00000e+02      1.19724e-13
    6.49475e-01      7.35297e-04      1.00000e+02      1.22468e-13
    6.56926e-01      7.28924e-04      1.00000e+02      1.25268e-13
    6.64461e-01      7.22478e-04      1.00000e+02      1.28100e-13
    6.72083e-01      7.15958e-04      1.00000e+02      1.30965e-13
    6.79793e-01      7.09558e-04      1.00000e+02      1.33951e-13
    6.87591e-01      7.03143e-04      1.00000e+02      1.36999e-13
    6.95478e-01      6.96654e-04      1.00000e+02      1.40081e-13
    7.03456e-01      6.90091e-04      1.00000e+02      1.43199e-13
    7.11526e-01      6.83685e-04      1.00000e+02      1.46487e-13
    7.19688e-01      6.77224e-04      1.00000e+02      1.49823e-13
    7.27944e-01      6.70689e-04      1.00000e+02      1.53198e-13
    7.36294e-01      6.64141e-04      1.00000e+02      1.56645e-13
    7.44741e-01      6.57708e-04      1.00000e+02      1.60236e-13
    7.53284e-01      6.51202e-04      1.00000e+02      1.63869e-13
    7.61925e-01      6.44621e-04      1.00000e+02      1.67543e-13
    7.70665e-01      6.38140e-04      1.00000e+02      1.71357e-13
    7.79506e-01      6.31656e-04      1.00000e+02      1.75255e-13
    7.88448e-01      6.25098e-04      1.00000e+02      1.79197e-13
    7.97492e-01      6.18541e-04      1.00000e+02      1.83233e-13
    8.06641e-01      6.12076e-04      1.00000e+02      1.87421e-13
    8.15894e-01      6.05537e-04      1.00000e+02      1.91658e-13
    8.25254e-01      5.98933e-04      1.00000e+02      1.95950e-13
    8.34721e-01      5.92491e-04      1.00000e+02      2.00446e-13
    8.44296e-01      5.85974e-04      1.00000e+02      2.04995e-13
    8.53981e-01      5.79383e-04      1.00000e+02      2.09595e-13
    8.63778e-01      5.72931e-04      1.00000e+02      2.14372e-13
    8.73687e-01      5.66432e-04      1.00000e+02      2.19220e-13
    8.83709e-01      5.59858e-04      1.00000e+02      2.24123e-13
    8.93847e-01      5.53411e-04      1.00000e+02      2.29245e-13
    9.04101e-01      5.46926e-04      1.00000e+02      2.34454e-13
    9.14472e-01      5.40366e-04      1.00000e+02      2.39724e-13
    9.24963e-01      5.33944e-04      1.00000e+02      2.45210e-13
    9.35574e-01      5.27469e-04      1.00000e+02      2.50776e-13
    9.46306e-01      5.20935e-04      1.00000e+02      2.56414e-13
    9.57162e-01      5.14548e-04      1.00000e+02      2.62245e-13
    9.68142e-01      5.08088e-04      1.00000e+02      2.68143e-13
    9.79248e-01      5.01678e-04      1.00000e+02      2.75251e-13
    9.90482e-01      4.95478e-04      1.00000e+02      2.85069e-13
    1.00184e+00      4.89207e-04      1.00000e+02      2.94999e-13
    1.01334e+00      4.82896e-04      1.00000e+02      3.02977e-13
    1.02496e+00      4.76531e-04      1.00000e+02      3.09835e-13
    1.03672e+00      4.70102e-04      1.00000e+02      3.16779e-13
    1.04861e+00      4.63815e-04      1.00000e+02      3.23994e-13
    1.06064e+00      4.57456e-04      1.00000e+02      3.31293e-13
    1.07281e+00      4.51140e-04      1.00000e+02      3.38778e-13
    1.08512e+00      4.44859e-04      1.00000e+02      3.46443e-13
    1.09757e+00      4.38522e-04      1.00000e+02      3.54212e-13
    1.11016e+00      4.32319e-04      1.00000e+02      3.62261e-13
    1.12289e+00      4.26044e-04      1.00000e+02      3.70403e-13
    1.13577e+00      4.19850e-04      1.00000e+02      3.78786e-13
    1.14880e+00      4.13652e-04      1.00000e+02      3.87331e-13
    1.16198e+00      4.07464e-04      1.00000e+02      3.96054e-13
    1.17531e+00      4.01340e-04      1.00000e+02      4.05013e-13
    1.18880e+00      3.95170e-04      1.00000e+02      4.14101e-13
    1.20243e+00      3.89121e-04      1.00000e+02      4.23490e-13
    1.21623e+00      3.83003e-04      1.00000e+02      4.32987e-13
    1.23018e+00      3.77006e-04      1.00000e+02      4.42799e-13
    1.24429e+00      3.70958e-04      1.00000e+02      4.52743e-13
    1.25857e+00      3.64998e-04      1.00000e+02      4.63011e-13
    1.27301e+00      3.59020e-04      1.00000e+02      4.73463e-13
    1.28761e+00      3.53109e-04      1.00000e+02      4.84137e-13
    1.30238e+00      3.47200e-04      1.00000e+02      4.94985e-13
    1.31732e+00      3.41348e-04      1.00000e+02      5.06134e-13
    1.33243e+00      3.35509e-04      1.00000e+02      5.17520e-13
    1.34772e+00      3.29724e-04      1.00000e+02      5.29189e-13
    1.36318e+00      3.23949e-04      1.00000e+02      5.41087e-13
    1.37882e+00      3.18240e-04      1.00000e+02      5.53289e-13
    1.39464e+00      3.12532e-04      1.00000e+02      5.65719e-13
    1.41064e+00      3.06903e-04      1.00000e+02      5.78481e-13
    1.42682e+00      3.01258e-04      1.00000e+02      5.91455e-13
    1.44319e+00      2.95716e-04      1.00000e+02      6.04810e-13
    1.45974e+00      2.90142e-04      1.00000e+02      6.18363e-13
    1.47649e+00      2.84687e-04      1.00000e+02      6.32315e-13
    1.49343e+00      2.79214e-04      1.00000e+02      6.46501e-13
    1.51056e+00      2.73821e-04      1.00000e+02      6.61077e-13
    1.52789e+00      2.68454e-04      1.00000e+02      6.75938e-13
    1.54542e+00      2.63120e-04      1.00000e+02      6.91094e-13
    1.56315e+00      2.57862e-04      1.00000e+02      7.06679e-13
    1.58108e+00      2.52598e-04      1.00000e+02      7.22545e-13
    1.59922e+00      2.47439e-04      1.00000e+02      7.38896e-13
    1.61757e+00      2.42293e-04      1.00000e+02      7.55526e-13
    1.63612e+00      2.37193e-04      1.00000e+02      7.72480e-13
    1.65489e+00      2.32169e-04      1.00000e+02      7.89805e-13
    1.67388e+00      2.27156e-04      1.00000e+02      8.07445e-13
    1.69308e+00      2.22226e-04      1.00000e+02      8.25596e-13
    1.71250e+00      2.17340e-04      1.00000e+02      8.44141e-13
    1.73215e+00      2.12474e-04      1.00000e+02      8.63040e-13
    1.75202e+00      2.07708e-04      1.00000e+02      8.82447e-13
    1.77212e+00      2.02976e-04      1.00000e+02      9.02246e-13
    1.79245e+00      1.98272e-04      1.00000e+02      9.22433e-13
    1.81302e+00      1.93663e-04      1.00000e+02      9.43166e-13
    1.83382e+00      1.89094e-04      1.00000e+02      9.64327e-13
    1.85485e+00      1.84559e-04      1.00000e+02      9.85913e-13
    1.87613e+00      1.80106e-04      1.00000e+02      1.00803e-12
    1.89766e+00      1.75712e-04      1.00000e+02      1.03066e-12
    1.91943e+00      1.71359e-04      1.00000e+02      1.05374e-12
    1.94145e+00      1.67056e-04      1.00000e+02      1.07728e-12
    1.96372e+00      1.62843e-04      1.00000e+02      1.10145e-12
    1.98625e+00      1.58887e-04      1.00000e+02      1.14289e-12
    2.00903e+00      1.55022e-04      1.00000e+02      1.18846e-12
    2.03208e+00      1.50957e-04      1.00000e+02      1.21504e-12
    2.05540e+00      1.46980e-04      1.00000e+02      1.24213e-12
    2.07898e+00      1.43054e-04      1.00000e+02      1.26998e-12
    2.10283e+00      1.39182e-04      1.00000e+02      1.29847e-12
    2.12695e+00      1.35366e-04      1.00000e+02      1.32749e-12
    2.15135e+00      1.31620e-04      1.00000e+02      1.35717e-12
    2.17603e+00      1.27946e-04      1.00000e+02      1.38754e-12
    2.20100e+00      1.24331e-04      1.00000e+02      1.41857e-12
    2.22625e+00      1.20774e-04      1.00000e+02      1.45028e-12
    2.25179e+00      1.17276e-04      1.00000e+02      1.48268e-12
    2.27762e+00      1.13841e-04      1.00000e+02      1.51577e-12
    2.30375e+00      1.10471e-04      1.00000e+02      1.54961e-12
    2.33018e+00      1.07180e-04      1.00000e+02      1.58424e-12
    2.35691e+00      1.03947e-04      1.00000e+02      1.61958e-12
    2.38395e+00      1.00777e-04      1.00000e+02      1.65575e-12
    2.41130e+00      9.76709e-05      1.00000e+02      1.69276e-12
    2.43897e+00      9.46285e-05      1.00000e+02      1.73055e-12
    2.46695e+00      9.16507e-05      1.00000e+02      1.76915e-12
    2.49525e+00      8.87381e-05      1.00000e+02      1.80861e-12
    2.52387e+00      8.58889e-05      1.00000e+02      1.84894e-12
    2.55283e+00      8.31039e-05      1.00000e+02      1.89021e-12
    2.58212e+00      8.03872e-05      1.00000e+02      1.93250e-12
    2.61174e+00      7.77345e-05      1.00000e+02      1.97555e-12
    2.64170e+00      7.51472e-05      1.00000e+02      2.01952e-12
    2.67201e+00      7.26245e-05      1.00000e+02      2.06433e-12
    2.70266e+00      7.01659e-05      1.00000e+02      2.11030e-12
    2.73367e+00      6.77734e-05      1.00000e+02      2.15727e-12
    2.76503e+00      6.54433e-05      1.00000e+02      2.20531e-12
    2.79675e+00      6.31778e-05      1.00000e+02      2.25438e-12
    2.82884e+00      6.09748e-05      1.00000e+02      2.30454e-12
    2.86129e+00      5.88351e-05      1.00000e+02      2.35580e-12
    2.89412e+00      5.67583e-05      1.00000e+02      2.40823e-12
    2.92732e+00      5.47421e-05      1.00000e+02      2.46180e-12
