    Er (keV)         SM dN/dE         BG dN/dE         BSM dN/dE (events/kg/day/keV)
    1.00000e-01      2.13424e-01      1.00000e+02      3.48152e+00
    2.99500e-01      1.91434e-01      1.00000e+02      1.16206e+00
    4.99000e-01      1.73384e-01      1.00000e+02      6.86944e-01
    6.98500e-01      1.57985e-01      1.00000e+02      4.86949e-01
    8.98000e-01      1.44523e-01      1.00000e+02      3.75240e-01
    1.09750e+00      1.32642e-01      1.00000e+02      3.04980e-01
    1.29700e+00      1.22034e-01      1.00000e+02      2.56207e-01
    1.49650e+00      1.12528e-01      1.00000e+02      2.20701e-01
    1.69600e+00      1.03950e-01      1.00000e+02      1.93546e-01
    1.89550e+00      9.61960e-02      1.00000e+02      1.72228e-01
    2.09500e+00      8.91514e-02      1.00000e+02      1.54962e-01
    2.29450e+00      8.27498e-02      1.00000e+02      1.40774e-01
    2.49400e+00      7.69053e-02      1.00000e+02      1.28862e-01
    2.69350e+00      7.15799e-02      1.00000e+02      1.18759e-01
    2.89300e+00      6.67027e-02      1.00000e+02      1.10051e-01
    3.09250e+00      6.22445e-02      1.00000e+02      1.02497e-01
    3.29200e+00      5.81575e-02      1.00000e+02      9.58629e-02
    3.49150e+00      5.44141e-02      1.00000e+02      9.00055e-02
    3.69100e+00      5.09782e-02      1.00000e+02      8.47985e-02
    3.89050e+00      4.78281e-02      1.00000e+02      8.01244e-02
    4.09000e+00      4.49359e-02      1.00000e+02      7.59151e-02
    4.28950e+00      4.22822e-02      1.00000e+02      7.21064e-02
    4.48900e+00      3.98462e-02      1.00000e+02      6.86445e-02
    4.68850e+00      3.76112e-02      1.00000e+02      6.54840e-02
    4.88800e+00      3.55575e-02      1.00000e+02      6.25875e-02
    5.08750e+00      3.36767e-02      1.00000e+02      5.99193e-02
    5.28700e+00      3.19489e-02      1.00000e+02      5.74570e-02
    5.48650e+00      3.03654e-02      1.00000e+02      5.51810e-02
    5.68600e+00      2.89140e-02      1.00000e+02      5.30621e-02
    5.88550e+00      2.75846e-02      1.00000e+02      5.10973e-02
    6.08500e+00      2.63668e-02      1.00000e+02      4.92605e-02
    6.28450e+00      2.52536e-02      1.00000e+02      4.75429e-02
    6.48400e+00      2.42347e-02      1.00000e+02      4.59380e-02
    6.68350e+00      2.33045e-02      1.00000e+02      4.44269e-02
    6.88300e+00      2.24553e-02      1.00000e+02      4.30061e-02
    7.08250e+00      2.16802e-02      1.00000e+02      4.16684e-02
    7.28200e+00      2.09737e-02      1.00000e+02      4.04042e-02
    7.48150e+00      2.03314e-02      1.00000e+02      3.92116e-02
    7.68100e+00      1.97467e-02      1.00000e+02      3.80813e-02
    7.88050e+00      1.92162e-02      1.00000e+02      3.70090e-02
    8.08000e+00      1.87338e-02      1.00000e+02      3.59924e-02
    8.27950e+00      1.82977e-02      1.00000e+02      3.50283e-02
    8.47900e+00      1.79019e-02      1.00000e+02      3.41074e-02
    8.67850e+00      1.75456e-02      1.00000e+02      3.32313e-02
    8.87800e+00      1.72221e-02      1.00000e+02      3.23956e-02
    9.07750e+00      1.69320e-02      1.00000e+02      3.15987e-02
    9.27700e+00      1.66701e-02      1.00000e+02      3.08352e-02
    9.47650e+00      1.64351e-02      1.00000e+02      3.01061e-02
    9.67600e+00      1.62240e-02      1.00000e+02      2.94070e-02
    9.87550e+00      1.60351e-02      1.00000e+02      2.87378e-02
    1.00750e+01      1.58658e-02      1.00000e+02      2.80970e-02
    1.02745e+01      1.57147e-02      1.00000e+02      2.74812e-02
    1.04740e+01      1.55797e-02      1.00000e+02      2.68891e-02
    1.06735e+01      1.54596e-02      1.00000e+02      2.63197e-02
    1.08730e+01      1.53524e-02      1.00000e+02      2.57725e-02
    1.10725e+01      1.52576e-02      1.00000e+02      2.52457e-02
    1.12720e+01      1.51729e-02      1.00000e+02      2.47367e-02
    1.14715e+01      1.50983e-02      1.00000e+02      2.42476e-02
    1.16710e+01      1.50315e-02      1.00000e+02      2.37753e-02
    1.18705e+01      1.49725e-02      1.00000e+02      2.33195e-02
    1.20700e+01      1.49200e-02      1.00000e+02      2.28794e-02
    1.22695e+01      1.48733e-02      1.00000e+02      2.24539e-02
    1.24690e+01      1.48318e-02      1.00000e+02      2.20429e-02
    1.26685e+01      1.47947e-02      1.00000e+02      2.16457e-02
    1.28680e+01      1.47615e-02      1.00000e+02      2.12600e-02
    1.30675e+01      1.47316e-02      1.00000e+02      2.08877e-02
    1.32670e+01      1.47045e-02      1.00000e+02      2.05267e-02
    1.34665e+01      1.46801e-02      1.00000e+02      2.01762e-02
    1.36660e+01      1.46572e-02      1.00000e+02      1.98367e-02
    1.38655e+01      1.46363e-02      1.00000e+02      1.95073e-02
    1.40650e+01      1.46166e-02      1.00000e+02      1.91877e-02
    1.42645e+01      1.45984e-02      1.00000e+02      1.88770e-02
    1.44640e+01      1.45809e-02      1.00000e+02      1.85759e-02
    1.46635e+01      1.45644e-02      1.00000e+02      1.82828e-02
    1.48630e+01      1.45483e-02      1.00000e+02      1.79982e-02
    1.50625e+01      1.45329e-02      1.00000e+02      1.77214e-02
    1.52620e+01      1.45178e-02      1.00000e+02      1.74520e-02
    1.54615e+01      1.45031e-02      1.00000e+02      1.71901e-02
    1.56610e+01      1.44885e-02      1.00000e+02      1.69349e-02
    1.58605e+01      1.44742e-02      1.00000e+02      1.66863e-02
    1.60600e+01      1.44601e-02      1.00000e+02      1.64441e-02
    1.62595e+01      1.44461e-02      1.00000e+02      1.62083e-02
    1.64590e+01      1.44323e-02      1.00000e+02      1.59784e-02
    1.66585e+01      1.44184e-02      1.00000e+02      1.57543e-02
    1.68580e+01      1.44047e-02      1.00000e+02      1.55357e-02
    1.70575e+01      1.43909e-02      1.00000e+02      1.53224e-02
    1.72570e+01      1.43773e-02      1.00000e+02      1.51142e-02
    1.74565e+01      1.43636e-02      1.00000e+02      1.49111e-02
    1.76560e+01      1.43501e-02      1.00000e+02      1.47127e-02
    1.78555e+01      1.43366e-02      1.00000e+02      1.45190e-02
    1.80550e+01      1.43231e-02      1.00000e+02      1.43297e-02
    1.82545e+01      1.43097e-02      1.00000e+02      1.41449e-02
    1.84540e+01      1.42963e-02      1.00000e+02      1.39639e-02
    1.86535e+01      1.42829e-02      1.00000e+02      1.37873e-02
    1.88530e+01      1.42696e-02      1.00000e+02      1.36145e-02
    1.90525e+01      1.42563e-02      1.00000e+02      1.34456e-02
    1.92520e+01      1.42430e-02      1.00000e+02      1.32803e-02
    1.94515e+01      1.42298e-02      1.00000e+02      1.31186e-02
    1.96510e+01      1.42165e-02      1.00000e+02      1.29602e-02
    1.98505e+01      1.42033e-02      1.00000e+02      1.28052e-02
    2.00500e+01      1.41901e-02      1.00000e+02      1.26533e-02
    2.02495e+01      1.41770e-02      1.00000e+02      1.25047e-02
    2.04490e+01      1.41639e-02      1.00000e+02      1.23591e-02
    2.06485e+01      1.41508e-02      1.00000e+02      1.22164e-02
    2.08480e+01      1.41377e-02      1.00000e+02      1.20766e-02
    2.10475e+01      1.41246e-02      1.00000e+02      1.19396e-02
    2.12470e+01      1.41116e-02      1.00000e+02      1.18053e-02
    2.14465e+01      1.40986e-02      1.00000e+02      1.16737e-02
    2.16460e+01      1.40856e-02      1.00000e+02      1.15446e-02
    2.18455e+01      1.40726e-02      1.00000e+02      1.14180e-02
    2.20450e+01      1.40597e-02      1.00000e+02      1.12938e-02
    2.22445e+01      1.40468e-02      1.00000e+02      1.11720e-02
    2.24440e+01      1.40339e-02      1.00000e+02      1.10524e-02
    2.26435e+01      1.40210e-02      1.00000e+02      1.09350e-02
    2.28430e+01      1.40081e-02      1.00000e+02      1.08197e-02
    2.30425e+01      1.39952e-02      1.00000e+02      1.07066e-02
    2.32420e+01      1.39823e-02      1.00000e+02      1.05954e-02
    2.34415e+01      1.39695e-02      1.00000e+02      1.04863e-02
    2.36410e+01      1.39567e-02      1.00000e+02      1.03791e-02
    2.38405e+01      1.39439e-02      1.00000e+02      1.02738e-02
    2.40400e+01      1.39311e-02      1.00000e+02      1.01703e-02
    2.42395e+01      1.39184e-02      1.00000e+02      1.00687e-02
    2.44390e+01      1.39056e-02      1.00000e+02      9.96881e-03
    2.46385e+01      1.38929e-02      1.00000e+02      9.87066e-03
    2.48380e+01      1.38802e-02      1.00000e+02      9.77415e-03
    2.50375e+01      1.38675e-02      1.00000e+02      9.67933e-03
    2.52370e+01      1.38549e-02      1.00000e+02      9.58605e-03
    2.54365e+01      1.38423e-02      1.00000e+02      9.49434e-03
    2.56360e+01      1.38296e-02      1.00000e+02      9.40408e-03
    2.58355e+01      1.38170e-02      1.00000e+02      9.31530e-03
    2.60350e+01      1.38044e-02      1.00000e+02      9.22793e-03
    2.62345e+01      1.37918e-02      1.00000e+02      9.14197e-03
    2.64340e+01      1.37793e-02      1.00000e+02      9.05736e-03
    2.66335e+01      1.37667e-02      1.00000e+02      8.97413e-03
    2.68330e+01      1.37542e-02      1.00000e+02      8.89218e-03
    2.70325e+01      1.37417e-02      1.00000e+02      8.81152e-03
    2.72320e+01      1.37292e-02      1.00000e+02      8.73209e-03
    2.74315e+01      1.37168e-02      1.00000e+02      8.65391e-03
    2.76310e+01      1.37043e-02      1.00000e+02      8.57694e-03
    2.78305e+01      1.36918e-02      1.00000e+02      8.50113e-03
    2.80300e+01      1.36793e-02      1.00000e+02      8.42647e-03
    2.82295e+01      1.36669e-02      1.00000e+02      8.35294e-03
    2.84290e+01      1.36544e-02      1.00000e+02      8.28050e-03
    2.86285e+01      1.36420e-02      1.00000e+02      8.20914e-03
    2.88280e+01      1.36296e-02      1.00000e+02      8.13881e-03
    2.90275e+01      1.36172e-02      1.00000e+02      8.06951e-03
    2.92270e+01      1.36048e-02      1.00000e+02      8.00119e-03
    2.94265e+01      1.35925e-02      1.00000e+02      7.93386e-03
    2.96260e+01      1.35801e-02      1.00000e+02      7.86748e-03
    2.98255e+01      1.35678e-02      1.00000e+02      7.80205e-03
    3.00250e+01      1.35555e-02      1.00000e+02      7.73752e-03
    3.02245e+01      1.35432e-02      1.00000e+02      7.67392e-03
    3.04240e+01      1.35309e-02      1.00000e+02      7.61118e-03
    3.06235e+01      1.35187e-02      1.00000e+02      7.54932e-03
    3.08230e+01      1.35065e-02      1.00000e+02      7.48830e-03
    3.10225e+01      1.34942e-02      1.00000e+02      7.42814e-03
    3.12220e+01      1.34820e-02      1.00000e+02      7.36879e-03
    3.14215e+01      1.34699e-02      1.00000e+02      7.31026e-03
    3.16210e+01      1.34577e-02      1.00000e+02      7.25253e-03
    3.18205e+01      1.34456e-02      1.00000e+02      7.19560e-03
    3.20200e+01      1.34335e-02      1.00000e+02      7.13941e-03
    3.22195e+01      1.34214e-02      1.00000e+02      7.08397e-03
    3.24190e+01      1.34093e-02      1.00000e+02      7.02924e-03
    3.26185e+01      1.33973e-02      1.00000e+02      6.97522e-03
    3.28180e+01      1.33852e-02      1.00000e+02      6.92189e-03
    3.30175e+01      1.33732e-02      1.00000e+02      6.86926e-03
    3.32170e+01      1.33612e-02      1.00000e+02      6.81728e-03
    3.34165e+01      1.33492e-02      1.00000e+02      6.76597e-03
    3.36160e+01      1.33372e-02      1.00000e+02      6.71530e-03
    3.38155e+01      1.33252e-02      1.00000e+02      6.66527e-03
    3.40150e+01      1.33132e-02      1.00000e+02      6.61585e-03
    3.42145e+01      1.33012e-02      1.00000e+02      6.56705e-03
    3.44140e+01      1.32892e-02      1.00000e+02      6.51885e-03
    3.46135e+01      1.32772e-02      1.00000e+02      6.47124e-03
    3.48130e+01      1.32653e-02      1.00000e+02      6.42421e-03
    3.50125e+01      1.32533e-02      1.00000e+02      6.37775e-03
    3.52120e+01      1.32414e-02      1.00000e+02      6.33186e-03
    3.54115e+01      1.32294e-02      1.00000e+02      6.28654e-03
    3.56110e+01      1.32175e-02      1.00000e+02      6.24177e-03
    3.58105e+01      1.32056e-02      1.00000e+02      6.19754e-03
    3.60100e+01      1.31937e-02      1.00000e+02      6.15382e-03
    3.62095e+01      1.31818e-02      1.00000e+02      6.11062e-03
    3.64090e+01      1.31700e-02      1.00000e+02      6.06792e-03
    3.66085e+01      1.31581e-02      1.00000e+02      6.02571e-03
    3.68080e+01      1.31463e-02      1.00000e+02      5.98399e-03
    3.70075e+01      1.31345e-02      1.00000e+02      5.94275e-03
    3.72070e+01      1.31227e-02      1.00000e+02      5.90198e-03
    3.74065e+01      1.31109e-02      1.00000e+02      5.86168e-03
    3.76060e+01      1.30991e-02      1.00000e+02      5.82183e-03
    3.78055e+01      1.30874e-02      1.00000e+02      5.78244e-03
    3.80050e+01      1.30756e-02      1.00000e+02      5.74348e-03
    3.82045e+01      1.30639e-02      1.00000e+02      5.70497e-03
    3.84040e+01      1.30522e-02      1.00000e+02      5.66689e-03
    3.86035e+01      1.30405e-02      1.00000e+02      5.62924e-03
    3.88030e+01      1.30288e-02      1.00000e+02      5.59199e-03
    3.90025e+01      1.30172e-02      1.00000e+02      5.55516e-03
    3.92020e+01      1.30055e-02      1.00000e+02      5.51872e-03
    3.94015e+01      1.29939e-02      1.00000e+02      5.48271e-03
    3.96010e+01      1.29823e-02      1.00000e+02      5.44709e-03
    3.98005e+01      1.29707e-02      1.00000e+02      5.41185e-03
    4.00000e+01      1.29591e-02      1.00000e+02      5.37698e-03
