    Er (keV)         SM dN/dE         BG dN/dE        BSM dN/dE (events/kg/day/keV)
    1.00100e-01      1.47613e-03      1.00000e+02      3.08874e-11
    1.01247e-01      1.47373e-03      1.00000e+02      3.12357e-11
    1.02408e-01      1.47131e-03      1.00000e+02      3.15880e-11
    1.03582e-01      1.46886e-03      1.00000e+02      3.19444e-11
    1.04769e-01      1.46638e-03      1.00000e+02      3.23049e-11
    1.05970e-01      1.46387e-03      1.00000e+02      3.26694e-11
    1.07184e-01      1.46134e-03      1.00000e+02      3.30382e-11
    1.08413e-01      1.45877e-03      1.00000e+02      3.34112e-11
    1.09655e-01      1.45618e-03      1.00000e+02      3.37885e-11
    1.10912e-01      1.45355e-03      1.00000e+02      3.41701e-11
    1.12184e-01      1.45090e-03      1.00000e+02      3.45561e-11
    1.13470e-01      1.44821e-03      1.00000e+02      3.49465e-11
    1.14770e-01      1.44550e-03      1.00000e+02      3.53414e-11
    1.16086e-01      1.44275e-03      1.00000e+02      3.57409e-11
    1.17417e-01      1.43997e-03      1.00000e+02      3.61449e-11
    1.18763e-01      1.43716e-03      1.00000e+02      3.65535e-11
    1.20124e-01      1.43432e-03      1.00000e+02      3.69669e-11
    1.21501e-01      1.43145e-03      1.00000e+02      3.73849e-11
    1.22894e-01      1.42854e-03      1.00000e+02      3.78078e-11
    1.24303e-01      1.42560e-03      1.00000e+02      3.82356e-11
    1.25728e-01      1.42262e-03      1.00000e+02      3.86682e-11
    1.27169e-01      1.41961e-03      1.00000e+02      3.91058e-11
    1.28627e-01      1.41657e-03      1.00000e+02      3.95484e-11
    1.30101e-01      1.41349e-03      1.00000e+02      3.99961e-11
    1.31593e-01      1.41058e-03      1.00000e+02      4.04470e-11
    1.33101e-01      1.40765e-03      1.00000e+02      4.09029e-11
    1.34627e-01      1.40468e-03      1.00000e+02      4.13641e-11
    1.36171e-01      1.40168e-03      1.00000e+02      4.18305e-11
    1.37732e-01      1.39865e-03      1.00000e+02      4.23023e-11
    1.39311e-01      1.39559e-03      1.00000e+02      4.27796e-11
    1.40908e-01      1.39248e-03      1.00000e+02      4.32622e-11
    1.42523e-01      1.38935e-03      1.00000e+02      4.37505e-11
    1.44157e-01      1.38617e-03      1.00000e+02      4.42443e-11
    1.45810e-01      1.38296e-03      1.00000e+02      4.47438e-11
    1.47482e-01      1.37971e-03      1.00000e+02      4.52490e-11
    1.49173e-01      1.37643e-03      1.00000e+02      4.57601e-11
    1.50883e-01      1.37311e-03      1.00000e+02      4.62769e-11
    1.52613e-01      1.36975e-03      1.00000e+02      4.67998e-11
    1.54363e-01      1.36635e-03      1.00000e+02      4.73286e-11
    1.56133e-01      1.36291e-03      1.00000e+02      4.78634e-11
    1.57923e-01      1.35943e-03      1.00000e+02      4.84045e-11
    1.59733e-01      1.35592e-03      1.00000e+02      4.89517e-11
    1.61565e-01      1.35250e-03      1.00000e+02      4.95033e-11
    1.63417e-01      1.34913e-03      1.00000e+02      5.00600e-11
    1.65291e-01      1.34573e-03      1.00000e+02      5.06232e-11
    1.67186e-01      1.34228e-03      1.00000e+02      5.11928e-11
    1.69103e-01      1.33879e-03      1.00000e+02      5.17689e-11
    1.71042e-01      1.33527e-03      1.00000e+02      5.23517e-11
    1.73003e-01      1.33170e-03      1.00000e+02      5.29411e-11
    1.74987e-01      1.32809e-03      1.00000e+02      5.35373e-11
    1.76994e-01      1.32444e-03      1.00000e+02      5.41404e-11
    1.79023e-01      1.32075e-03      1.00000e+02      5.47503e-11
    1.81076e-01      1.31702e-03      1.00000e+02      5.53673e-11
    1.83152e-01      1.31324e-03      1.00000e+02      5.59913e-11
    1.85252e-01      1.30942e-03      1.00000e+02      5.66225e-11
    1.87377e-01      1.30556e-03      1.00000e+02      5.72610e-11
    1.89525e-01      1.30165e-03      1.00000e+02      5.79067e-11
    1.91698e-01      1.29782e-03      1.00000e+02      5.85585e-11
    1.93897e-01      1.29406e-03      1.00000e+02      5.92162e-11
    1.96120e-01      1.29025e-03      1.00000e+02      5.98815e-11
    1.98369e-01      1.28641e-03      1.00000e+02      6.05545e-11
    2.00644e-01      1.28252e-03      1.00000e+02      6.12351e-11
    2.02944e-01      1.27858e-03      1.00000e+02      6.19236e-11
    2.05272e-01      1.27460e-03      1.00000e+02      6.26199e-11
    2.07626e-01      1.27057e-03      1.00000e+02      6.33243e-11
    2.10006e-01      1.26650e-03      1.00000e+02      6.40367e-11
    2.12415e-01      1.26238e-03      1.00000e+02      6.47573e-11
    2.14851e-01      1.25821e-03      1.00000e+02      6.54862e-11
    2.17314e-01      1.25400e-03      1.00000e+02      6.62235e-11
    2.19806e-01      1.24973e-03      1.00000e+02      6.69692e-11
    2.22327e-01      1.24557e-03      1.00000e+02      6.77238e-11
    2.24877e-01      1.24145e-03      1.00000e+02      6.84874e-11
    2.27455e-01      1.23729e-03      1.00000e+02      6.92597e-11
    2.30064e-01      1.23308e-03      1.00000e+02      7.00409e-11
    2.32702e-01      1.22882e-03      1.00000e+02      7.08311e-11
    2.35371e-01      1.22451e-03      1.00000e+02      7.16303e-11
    2.38070e-01      1.22016e-03      1.00000e+02      7.24387e-11
    2.40800e-01      1.21575e-03      1.00000e+02      7.32563e-11
    2.43562e-01      1.21129e-03      1.00000e+02      7.40834e-11
    2.46355e-01      1.20679e-03      1.00000e+02      7.49199e-11
    2.49180e-01      1.20223e-03      1.00000e+02      7.57661e-11
    2.52038e-01      1.19770e-03      1.00000e+02      7.66179e-11
    2.54928e-01      1.19328e-03      1.00000e+02      7.74723e-11
    2.57852e-01      1.18881e-03      1.00000e+02      7.83365e-11
    2.60809e-01      1.18429e-03      1.00000e+02      7.92106e-11
    2.63800e-01      1.17972e-03      1.00000e+02      8.00948e-11
    2.66826e-01      1.17509e-03      1.00000e+02      8.09890e-11
    2.69886e-01      1.17041e-03      1.00000e+02      8.18936e-11
    2.72981e-01      1.16568e-03      1.00000e+02      8.28085e-11
    2.76112e-01      1.16089e-03      1.00000e+02      8.37339e-11
    2.79278e-01      1.15605e-03      1.00000e+02      8.46700e-11
    2.82481e-01      1.15125e-03      1.00000e+02      8.56174e-11
    2.85721e-01      1.14655e-03      1.00000e+02      8.65768e-11
    2.88998e-01      1.14180e-03      1.00000e+02      8.75471e-11
    2.92313e-01      1.13699e-03      1.00000e+02      8.85286e-11
    2.95665e-01      1.13213e-03      1.00000e+02      8.95214e-11
    2.99056e-01      1.12721e-03      1.00000e+02      9.05255e-11
    3.02486e-01      1.12224e-03      1.00000e+02      9.15412e-11
    3.05955e-01      1.11720e-03      1.00000e+02      9.25685e-11
    3.09464e-01      1.11211e-03      1.00000e+02      9.36076e-11
    3.13013e-01      1.10708e-03      1.00000e+02      9.46571e-11
    3.16603e-01      1.10213e-03      1.00000e+02      9.57167e-11
    3.20235e-01      1.09712e-03      1.00000e+02      9.67884e-11
    3.23908e-01      1.09206e-03      1.00000e+02      9.78725e-11
    3.27623e-01      1.08693e-03      1.00000e+02      9.89689e-11
    3.31380e-01      1.08175e-03      1.00000e+02      1.00078e-10
    3.35181e-01      1.07651e-03      1.00000e+02      1.01200e-10
    3.39025e-01      1.07121e-03      1.00000e+02      1.02334e-10
    3.42914e-01      1.06593e-03      1.00000e+02      1.03481e-10
    3.46847e-01      1.06077e-03      1.00000e+02      1.04639e-10
    3.50825e-01      1.05554e-03      1.00000e+02      1.05810e-10
    3.54849e-01      1.05026e-03      1.00000e+02      1.06995e-10
    3.58919e-01      1.04491e-03      1.00000e+02      1.08193e-10
    3.63035e-01      1.03950e-03      1.00000e+02      1.09405e-10
    3.67199e-01      1.03403e-03      1.00000e+02      1.10631e-10
    3.71411e-01      1.02850e-03      1.00000e+02      1.11871e-10
    3.75671e-01      1.02314e-03      1.00000e+02      1.13122e-10
    3.79980e-01      1.01774e-03      1.00000e+02      1.14388e-10
    3.84338e-01      1.01228e-03      1.00000e+02      1.15668e-10
    3.88747e-01      1.00676e-03      1.00000e+02      1.16963e-10
    3.93205e-01      1.00117e-03      1.00000e+02      1.18272e-10
    3.97716e-01      9.95518e-04      1.00000e+02      1.19597e-10
    4.02277e-01      9.89817e-04      1.00000e+02      1.20937e-10
    4.06891e-01      9.84296e-04      1.00000e+02      1.22293e-10
    4.11559e-01      9.78711e-04      1.00000e+02      1.23664e-10
    4.16279e-01      9.73063e-04      1.00000e+02      1.25052e-10
    4.21054e-01      9.67350e-04      1.00000e+02      1.26455e-10
    4.25883e-01      9.61571e-04      1.00000e+02      1.27874e-10
    4.30768e-01      9.55726e-04      1.00000e+02      1.29310e-10
    4.35709e-01      9.49995e-04      1.00000e+02      1.30751e-10
    4.40707e-01      9.44276e-04      1.00000e+02      1.32204e-10
    4.45762e-01      9.38490e-04      1.00000e+02      1.33674e-10
    4.50875e-01      9.32639e-04      1.00000e+02      1.35160e-10
    4.56047e-01      9.26720e-04      1.00000e+02      1.36663e-10
    4.61278e-01      9.20733e-04      1.00000e+02      1.38184e-10
    4.66569e-01      9.14884e-04      1.00000e+02      1.39724e-10
    4.71921e-01      9.09025e-04      1.00000e+02      1.41281e-10
    4.77334e-01      9.03099e-04      1.00000e+02      1.42856e-10
    4.82809e-01      8.97105e-04      1.00000e+02      1.44450e-10
    4.88347e-01      8.91042e-04      1.00000e+02      1.46062e-10
    4.93949e-01      8.84970e-04      1.00000e+02      1.47691e-10
    4.99615e-01      8.79027e-04      1.00000e+02      1.49335e-10
    5.05345e-01      8.73016e-04      1.00000e+02      1.50998e-10
    5.11142e-01      8.66936e-04      1.00000e+02      1.52681e-10
    5.17005e-01      8.60787e-04      1.00000e+02      1.54382e-10
    5.22936e-01      8.54571e-04      1.00000e+02      1.56103e-10
    5.28934e-01      8.48536e-04      1.00000e+02      1.57839e-10
    5.35001e-01      8.42431e-04      1.00000e+02      1.59595e-10
    5.41138e-01      8.36256e-04      1.00000e+02      1.61372e-10
    5.47345e-01      8.30010e-04      1.00000e+02      1.63168e-10
    5.53624e-01      8.23717e-04      1.00000e+02      1.64985e-10
    5.59974e-01      8.17588e-04      1.00000e+02      1.66818e-10
    5.66398e-01      8.11388e-04      1.00000e+02      1.68673e-10
    5.72895e-01      8.05117e-04      1.00000e+02      1.70548e-10
    5.79466e-01      7.98774e-04      1.00000e+02      1.72446e-10
    5.86113e-01      7.92471e-04      1.00000e+02      1.74369e-10
    5.92837e-01      7.86245e-04      1.00000e+02      1.76319e-10
    5.99637e-01      7.79946e-04      1.00000e+02      1.78293e-10
    6.06516e-01      7.73576e-04      1.00000e+02      1.80288e-10
    6.13473e-01      7.67134e-04      1.00000e+02      1.82307e-10
    6.20510e-01      7.60872e-04      1.00000e+02      1.84329e-10
    6.27628e-01      7.54538e-04      1.00000e+02      1.86375e-10
    6.34827e-01      7.48131e-04      1.00000e+02      1.88444e-10
    6.42110e-01      7.41651e-04      1.00000e+02      1.90536e-10
    6.49475e-01      7.35297e-04      1.00000e+02      1.92649e-10
    6.56926e-01      7.28924e-04      1.00000e+02      1.94784e-10
    6.64461e-01      7.22478e-04      1.00000e+02      1.96944e-10
    6.72083e-01      7.15958e-04      1.00000e+02      1.99128e-10
    6.79793e-01      7.09558e-04      1.00000e+02      2.01321e-10
    6.87591e-01      7.03143e-04      1.00000e+02      2.03534e-10
    6.95478e-01      6.96654e-04      1.00000e+02      2.05772e-10
    7.03456e-01      6.90091e-04      1.00000e+02      2.08036e-10
    7.11526e-01      6.83685e-04      1.00000e+02      2.10338e-10
    7.19688e-01      6.77224e-04      1.00000e+02      2.12667e-10
    7.27944e-01      6.70689e-04      1.00000e+02      2.15023e-10
    7.36294e-01      6.64141e-04      1.00000e+02      2.17405e-10
    7.44741e-01      6.57708e-04      1.00000e+02      2.19811e-10
    7.53284e-01      6.51202e-04      1.00000e+02      2.22244e-10
    7.61925e-01      6.44621e-04      1.00000e+02      2.24705e-10
    7.70665e-01      6.38140e-04      1.00000e+02      2.27186e-10
    7.79506e-01      6.31656e-04      1.00000e+02      2.29690e-10
    7.88448e-01      6.25098e-04      1.00000e+02      2.32224e-10
    7.97492e-01      6.18541e-04      1.00000e+02      2.34787e-10
    8.06641e-01      6.12076e-04      1.00000e+02      2.37382e-10
    8.15894e-01      6.05537e-04      1.00000e+02      2.40006e-10
    8.25254e-01      5.98933e-04      1.00000e+02      2.42661e-10
    8.34721e-01      5.92491e-04      1.00000e+02      2.45350e-10
    8.44296e-01      5.85974e-04      1.00000e+02      2.48070e-10
    8.53981e-01      5.79383e-04      1.00000e+02      2.50821e-10
    8.63778e-01      5.72931e-04      1.00000e+02      2.53578e-10
    8.73687e-01      5.66432e-04      1.00000e+02      2.56364e-10
    8.83709e-01      5.59858e-04      1.00000e+02      2.59181e-10
    8.93847e-01      5.53411e-04      1.00000e+02      2.62052e-10
    9.04101e-01      5.46926e-04      1.00000e+02      2.64960e-10
    9.14472e-01      5.40366e-04      1.00000e+02      2.67902e-10
    9.24963e-01      5.33944e-04      1.00000e+02      2.70874e-10
    9.35574e-01      5.27469e-04      1.00000e+02      2.73880e-10
    9.46306e-01      5.20935e-04      1.00000e+02      2.76917e-10
    9.57162e-01      5.14548e-04      1.00000e+02      2.79946e-10
    9.68142e-01      5.08088e-04      1.00000e+02      2.83009e-10
    9.79248e-01      5.01678e-04      1.00000e+02      2.87211e-10
    9.90482e-01      4.95478e-04      1.00000e+02      2.94000e-10
    1.00184e+00      4.89207e-04      1.00000e+02      3.00867e-10
    1.01334e+00      4.82896e-04      1.00000e+02      3.05518e-10
    1.02496e+00      4.76531e-04      1.00000e+02      3.08878e-10
    1.03672e+00      4.70102e-04      1.00000e+02      3.12276e-10
    1.04861e+00      4.63815e-04      1.00000e+02      3.15710e-10
    1.06064e+00      4.57456e-04      1.00000e+02      3.19183e-10
    1.07281e+00      4.51140e-04      1.00000e+02      3.22691e-10
    1.08512e+00      4.44859e-04      1.00000e+02      3.26233e-10
    1.09757e+00      4.38522e-04      1.00000e+02      3.29817e-10
    1.11016e+00      4.32319e-04      1.00000e+02      3.33435e-10
    1.12289e+00      4.26044e-04      1.00000e+02      3.37094e-10
    1.13577e+00      4.19850e-04      1.00000e+02      3.40792e-10
    1.14880e+00      4.13652e-04      1.00000e+02      3.44531e-10
    1.16198e+00      4.07464e-04      1.00000e+02      3.48310e-10
    1.17531e+00      4.01340e-04      1.00000e+02      3.52127e-10
    1.18880e+00      3.95170e-04      1.00000e+02      3.55988e-10
    1.20243e+00      3.89121e-04      1.00000e+02      3.59887e-10
    1.21623e+00      3.83003e-04      1.00000e+02      3.63831e-10
    1.23018e+00      3.77006e-04      1.00000e+02      3.67812e-10
    1.24429e+00      3.70958e-04      1.00000e+02      3.71839e-10
    1.25857e+00      3.64998e-04      1.00000e+02      3.75932e-10
    1.27301e+00      3.59020e-04      1.00000e+02      3.80078e-10
    1.28761e+00      3.53109e-04      1.00000e+02      3.84223e-10
    1.30238e+00      3.47200e-04      1.00000e+02      3.88391e-10
    1.31732e+00      3.41348e-04      1.00000e+02      3.92624e-10
    1.33243e+00      3.35509e-04      1.00000e+02      3.96915e-10
    1.34772e+00      3.29724e-04      1.00000e+02      4.01251e-10
    1.36318e+00      3.23949e-04      1.00000e+02      4.05633e-10
    1.37882e+00      3.18240e-04      1.00000e+02      4.10062e-10
    1.39464e+00      3.12532e-04      1.00000e+02      4.14540e-10
    1.41064e+00      3.06903e-04      1.00000e+02      4.19062e-10
    1.42682e+00      3.01258e-04      1.00000e+02      4.23634e-10
    1.44319e+00      2.95716e-04      1.00000e+02      4.28253e-10
    1.45974e+00      2.90142e-04      1.00000e+02      4.32924e-10
    1.47649e+00      2.84687e-04      1.00000e+02      4.37633e-10
    1.49343e+00      2.79214e-04      1.00000e+02      4.42399e-10
    1.51056e+00      2.73821e-04      1.00000e+02      4.47227e-10
    1.52789e+00      2.68454e-04      1.00000e+02      4.52097e-10
    1.54542e+00      2.63120e-04      1.00000e+02      4.57005e-10
    1.56315e+00      2.57862e-04      1.00000e+02      4.61990e-10
    1.58108e+00      2.52598e-04      1.00000e+02      4.67040e-10
    1.59922e+00      2.47439e-04      1.00000e+02      4.72161e-10
    1.61757e+00      2.42293e-04      1.00000e+02      4.77320e-10
    1.63612e+00      2.37193e-04      1.00000e+02      4.82507e-10
    1.65489e+00      2.32169e-04      1.00000e+02      4.87714e-10
    1.67388e+00      2.27156e-04      1.00000e+02      4.92975e-10
    1.69308e+00      2.22226e-04      1.00000e+02      4.98327e-10
    1.71250e+00      2.17340e-04      1.00000e+02      5.03735e-10
    1.73215e+00      2.12474e-04      1.00000e+02      5.09201e-10
    1.75202e+00      2.07708e-04      1.00000e+02      5.14721e-10
    1.77212e+00      2.02976e-04      1.00000e+02      5.20299e-10
    1.79245e+00      1.98272e-04      1.00000e+02      5.25935e-10
    1.81302e+00      1.93663e-04      1.00000e+02      5.31634e-10
    1.83382e+00      1.89094e-04      1.00000e+02      5.37392e-10
    1.85485e+00      1.84559e-04      1.00000e+02      5.43211e-10
    1.87613e+00      1.80106e-04      1.00000e+02      5.49088e-10
    1.89766e+00      1.75712e-04      1.00000e+02      5.55035e-10
    1.91943e+00      1.71359e-04      1.00000e+02      5.61039e-10
    1.94145e+00      1.67056e-04      1.00000e+02      5.67089e-10
    1.96372e+00      1.62843e-04      1.00000e+02      5.73212e-10
    1.98625e+00      1.58887e-04      1.00000e+02      5.87958e-10
    2.00903e+00      1.55022e-04      1.00000e+02      6.04547e-10
    2.03208e+00      1.50957e-04      1.00000e+02      6.11076e-10
    2.05540e+00      1.46980e-04      1.00000e+02      6.17594e-10
    2.07898e+00      1.43054e-04      1.00000e+02      6.24275e-10
    2.10283e+00      1.39182e-04      1.00000e+02      6.31044e-10
    2.12695e+00      1.35366e-04      1.00000e+02      6.37843e-10
    2.15135e+00      1.31620e-04      1.00000e+02      6.44711e-10
    2.17603e+00      1.27946e-04      1.00000e+02      6.51651e-10
    2.20100e+00      1.24331e-04      1.00000e+02      6.58662e-10
    2.22625e+00      1.20774e-04      1.00000e+02      6.65748e-10
    2.25179e+00      1.17276e-04      1.00000e+02      6.72908e-10
    2.27762e+00      1.13841e-04      1.00000e+02      6.80135e-10
    2.30375e+00      1.10471e-04      1.00000e+02      6.87440e-10
    2.33018e+00      1.07180e-04      1.00000e+02      6.94820e-10
    2.35691e+00      1.03947e-04      1.00000e+02      7.02253e-10
    2.38395e+00      1.00777e-04      1.00000e+02      7.09793e-10
    2.41130e+00      9.76709e-05      1.00000e+02      7.17427e-10
    2.43897e+00      9.46285e-05      1.00000e+02      7.25126e-10
    2.46695e+00      9.16507e-05      1.00000e+02      7.32890e-10
    2.49525e+00      8.87381e-05      1.00000e+02      7.40742e-10
    2.52387e+00      8.58889e-05      1.00000e+02      7.48676e-10
    2.55283e+00      8.31039e-05      1.00000e+02      7.56707e-10
    2.58212e+00      8.03872e-05      1.00000e+02      7.64864e-10
    2.61174e+00      7.77345e-05      1.00000e+02      7.73036e-10
    2.64170e+00      7.51472e-05      1.00000e+02      7.81278e-10
    2.67201e+00      7.26245e-05      1.00000e+02      7.89557e-10
    2.70266e+00      7.01659e-05      1.00000e+02      7.97982e-10
    2.73367e+00      6.77734e-05      1.00000e+02      8.06491e-10
    2.76503e+00      6.54433e-05      1.00000e+02      8.15097e-10
    2.79675e+00      6.31778e-05      1.00000e+02      8.23782e-10
    2.82884e+00      6.09748e-05      1.00000e+02      8.32558e-10
    2.86129e+00      5.88351e-05      1.00000e+02      8.41422e-10
    2.89412e+00      5.67583e-05      1.00000e+02      8.50393e-10
    2.92732e+00      5.47421e-05      1.00000e+02      8.59451e-10
