    Er (keV)         SM dN/dE         BG dN/dE        BSM dN/dE (events/kg/day/keV)
    1.01000e-02      8.67295e-01      5.00000e+00      3.01322e-12
    1.02614e-02      8.62747e-01      5.00000e+00      3.06137e-12
    1.04254e-02      8.58125e-01      5.00000e+00      3.11031e-12
    1.05921e-02      8.53428e-01      5.00000e+00      3.16003e-12
    1.07615e-02      8.48656e-01      5.00000e+00      3.21055e-12
    1.09336e-02      8.43806e-01      5.00000e+00      3.26189e-12
    1.11084e-02      8.38879e-01      5.00000e+00      3.31405e-12
    1.12861e-02      8.33871e-01      5.00000e+00      3.36706e-12
    1.14667e-02      8.28783e-01      5.00000e+00      3.42093e-12
    1.16502e-02      8.23613e-01      5.00000e+00      3.47566e-12
    1.18366e-02      8.18359e-01      5.00000e+00      3.53128e-12
    1.20261e-02      8.13021e-01      5.00000e+00      3.58780e-12
    1.22186e-02      8.07596e-01      5.00000e+00      3.64522e-12
    1.24142e-02      8.02084e-01      5.00000e+00      3.70358e-12
    1.26129e-02      7.96483e-01      5.00000e+00      3.76288e-12
    1.28149e-02      7.90791e-01      5.00000e+00      3.82313e-12
    1.30202e-02      7.85008e-01      5.00000e+00      3.88436e-12
    1.32287e-02      7.79131e-01      5.00000e+00      3.94657e-12
    1.34406e-02      7.73159e-01      5.00000e+00      4.00979e-12
    1.36560e-02      7.67091e-01      5.00000e+00      4.07403e-12
    1.38748e-02      7.60925e-01      5.00000e+00      4.13931e-12
    1.40971e-02      7.54660e-01      5.00000e+00      4.20564e-12
    1.43231e-02      7.48293e-01      5.00000e+00      4.27304e-12
    1.45527e-02      7.41823e-01      5.00000e+00      4.34153e-12
    1.47859e-02      7.35249e-01      5.00000e+00      4.41112e-12
    1.50230e-02      7.28569e-01      5.00000e+00      4.48184e-12
    1.52639e-02      7.21782e-01      5.00000e+00      4.55370e-12
    1.55086e-02      7.14884e-01      5.00000e+00      4.62672e-12
    1.57574e-02      7.07876e-01      5.00000e+00      4.70091e-12
    1.60101e-02      7.00754e-01      5.00000e+00      4.77631e-12
    1.62669e-02      6.93517e-01      5.00000e+00      4.85292e-12
    1.65279e-02      6.86163e-01      5.00000e+00      4.93077e-12
    1.67931e-02      6.78691e-01      5.00000e+00      5.00988e-12
    1.70625e-02      6.71098e-01      5.00000e+00      5.09026e-12
    1.73363e-02      6.63382e-01      5.00000e+00      5.17194e-12
    1.76145e-02      6.55542e-01      5.00000e+00      5.25494e-12
    1.78972e-02      6.47576e-01      5.00000e+00      5.33928e-12
    1.81845e-02      6.39480e-01      5.00000e+00      5.42498e-12
    1.84764e-02      6.31255e-01      5.00000e+00      5.51206e-12
    1.87731e-02      6.22896e-01      5.00000e+00      5.60055e-12
    1.90745e-02      6.14402e-01      5.00000e+00      5.69046e-12
    1.93808e-02      6.05772e-01      5.00000e+00      5.78183e-12
    1.96920e-02      5.97002e-01      5.00000e+00      5.87468e-12
    2.00082e-02      5.88090e-01      5.00000e+00      5.96902e-12
    2.03296e-02      5.79035e-01      5.00000e+00      6.06488e-12
    2.06561e-02      5.69833e-01      5.00000e+00      6.16230e-12
    2.09879e-02      5.60483e-01      5.00000e+00      6.26128e-12
    2.13251e-02      5.50982e-01      5.00000e+00      6.36186e-12
    2.16677e-02      5.41328e-01      5.00000e+00      6.46407e-12
    2.20158e-02      5.31517e-01      5.00000e+00      6.56792e-12
    2.23696e-02      5.21549e-01      5.00000e+00      6.67346e-12
    2.27291e-02      5.11419e-01      5.00000e+00      6.78069e-12
    2.30943e-02      5.01126e-01      5.00000e+00      6.88966e-12
    2.34655e-02      4.90667e-01      5.00000e+00      7.00038e-12
    2.38426e-02      4.80039e-01      5.00000e+00      7.11289e-12
    2.42259e-02      4.69240e-01      5.00000e+00      7.22722e-12
    2.46153e-02      4.58266e-01      5.00000e+00      7.34340e-12
    2.50110e-02      4.47115e-01      5.00000e+00      7.46145e-12
    2.54131e-02      4.35784e-01      5.00000e+00      7.58140e-12
    2.58217e-02      4.24270e-01      5.00000e+00      7.70329e-12
    2.62369e-02      4.12570e-01      5.00000e+00      7.82715e-12
    2.66588e-02      4.00682e-01      5.00000e+00      7.95301e-12
    2.70875e-02      3.88601e-01      5.00000e+00      8.08090e-12
    2.75231e-02      3.76326e-01      5.00000e+00      8.21085e-12
    2.79658e-02      3.63852e-01      5.00000e+00      8.34290e-12
    2.84156e-02      3.51177e-01      5.00000e+00      8.47709e-12
    2.88727e-02      3.38298e-01      5.00000e+00      8.61344e-12
    2.93371e-02      3.25210e-01      5.00000e+00      8.75199e-12
    2.98090e-02      3.11912e-01      5.00000e+00      8.89277e-12
    3.02886e-02      2.98398e-01      5.00000e+00      9.03583e-12
    3.07759e-02      2.84667e-01      5.00000e+00      9.18120e-12
    3.12710e-02      2.70714e-01      5.00000e+00      9.32891e-12
    3.17742e-02      2.56535e-01      5.00000e+00      9.47901e-12
    3.22855e-02      2.42128e-01      5.00000e+00      9.63154e-12
    3.28050e-02      2.27488e-01      5.00000e+00      9.78652e-12
    3.33329e-02      2.12612e-01      5.00000e+00      9.94400e-12
    3.38693e-02      1.97496e-01      5.00000e+00      1.01040e-11
    3.44144e-02      1.82136e-01      5.00000e+00      1.02666e-11
    3.49683e-02      1.66528e-01      5.00000e+00      1.04319e-11
    3.55311e-02      1.50667e-01      5.00000e+00      1.05998e-11
    3.61031e-02      1.34551e-01      5.00000e+00      1.07704e-11
    3.66842e-02      1.18175e-01      5.00000e+00      1.09438e-11
    3.72747e-02      1.01534e-01      5.00000e+00      1.11199e-11
    3.78748e-02      8.46253e-02      5.00000e+00      1.12989e-11
    3.84845e-02      6.74431e-02      5.00000e+00      1.14808e-11
    3.91041e-02      4.99836e-02      5.00000e+00      1.16657e-11
    3.97337e-02      3.22423e-02      5.00000e+00      1.18535e-11
    4.03735e-02      1.64446e-02      5.00000e+00      1.20443e-11
    4.10236e-02      1.61239e-02      5.00000e+00      1.22382e-11
    4.16841e-02      1.57981e-02      5.00000e+00      1.24353e-11
    4.23554e-02      1.54670e-02      5.00000e+00      1.26355e-11
    4.30374e-02      1.51306e-02      5.00000e+00      1.28389e-11
    4.37305e-02      1.47887e-02      5.00000e+00      1.30456e-11
    4.44348e-02      1.44414e-02      5.00000e+00      1.32557e-11
    4.51504e-02      1.40884e-02      5.00000e+00      1.34691e-11
    4.58776e-02      1.37297e-02      5.00000e+00      1.36860e-11
    4.66165e-02      1.33652e-02      5.00000e+00      1.39064e-11
    4.73674e-02      1.29949e-02      5.00000e+00      1.41304e-11
    4.81304e-02      1.26185e-02      5.00000e+00      1.43579e-11
    4.89056e-02      1.22361e-02      5.00000e+00      1.45892e-11
    4.96934e-02      1.18475e-02      5.00000e+00      1.48242e-11
    5.04940e-02      1.14527e-02      5.00000e+00      1.50629e-11
    5.13074e-02      1.10515e-02      5.00000e+00      1.53055e-11
    5.21340e-02      1.06438e-02      5.00000e+00      1.55521e-11
    5.29739e-02      1.02295e-02      5.00000e+00      1.58026e-11
    5.38274e-02      9.80851e-03      5.00000e+00      1.60572e-11
    5.46946e-02      9.38074e-03      5.00000e+00      1.63158e-11
    5.55758e-02      8.94607e-03      5.00000e+00      1.65787e-11
    5.64713e-02      8.50438e-03      5.00000e+00      1.68458e-11
    5.73812e-02      8.05556e-03      5.00000e+00      1.71172e-11
    5.83059e-02      7.59950e-03      5.00000e+00      1.73930e-11
    5.92454e-02      7.13607e-03      5.00000e+00      1.76732e-11
    6.02001e-02      6.66517e-03      5.00000e+00      1.79579e-11
    6.11702e-02      6.18666e-03      5.00000e+00      1.82473e-11
    6.21560e-02      5.70044e-03      5.00000e+00      1.85413e-11
    6.31577e-02      5.20636e-03      5.00000e+00      1.88401e-11
    6.41755e-02      4.70430e-03      5.00000e+00      1.91437e-11
    6.52098e-02      4.19415e-03      5.00000e+00      1.94522e-11
    6.62608e-02      3.67576e-03      5.00000e+00      1.97656e-11
    6.73287e-02      3.14900e-03      5.00000e+00      2.00842e-11
    6.84139e-02      2.61373e-03      5.00000e+00      2.04078e-11
    6.95166e-02      2.06983e-03      5.00000e+00      2.07367e-11
    7.06371e-02      1.54231e-03      5.00000e+00      2.10727e-11
    7.17757e-02      1.53975e-03      5.00000e+00      2.14511e-11
    7.29326e-02      1.53716e-03      5.00000e+00      2.18356e-11
    7.41083e-02      1.53452e-03      5.00000e+00      2.22263e-11
    7.53029e-02      1.53184e-03      5.00000e+00      2.26233e-11
    7.65168e-02      1.52911e-03      5.00000e+00      2.30267e-11
    7.77503e-02      1.52634e-03      5.00000e+00      2.34366e-11
    7.90037e-02      1.52353e-03      5.00000e+00      2.38531e-11
    8.02773e-02      1.52067e-03      5.00000e+00      2.42764e-11
    8.15715e-02      1.51777e-03      5.00000e+00      2.47065e-11
    8.28866e-02      1.51481e-03      5.00000e+00      2.51435e-11
    8.42229e-02      1.51182e-03      5.00000e+00      2.55876e-11
    8.55808e-02      1.50877e-03      5.00000e+00      2.60389e-11
    8.69606e-02      1.50567e-03      5.00000e+00      2.64974e-11
    8.83627e-02      1.50252e-03      5.00000e+00      2.69634e-11
    8.97874e-02      1.49933e-03      5.00000e+00      2.74368e-11
    9.12351e-02      1.49608e-03      5.00000e+00      2.79179e-11
    9.27061e-02      1.49278e-03      5.00000e+00      2.84068e-11
    9.42009e-02      1.48942e-03      5.00000e+00      2.89036e-11
    9.57199e-02      1.48601e-03      5.00000e+00      2.94084e-11
    9.72633e-02      1.48255e-03      5.00000e+00      2.99213e-11
    9.88317e-02      1.47903e-03      5.00000e+00      3.04425e-11
    1.00425e-01      1.47545e-03      5.00000e+00      3.09721e-11
    1.02045e-01      1.47200e-03      5.00000e+00      3.14769e-11
    1.03690e-01      1.46858e-03      5.00000e+00      3.19766e-11
    1.05362e-01      1.46509e-03      5.00000e+00      3.24843e-11
    1.07062e-01      1.46155e-03      5.00000e+00      3.30003e-11
    1.08788e-01      1.45796e-03      5.00000e+00      3.35245e-11
    1.10543e-01      1.45430e-03      5.00000e+00      3.40573e-11
    1.12325e-01      1.45059e-03      5.00000e+00      3.45986e-11
    1.14137e-01      1.44682e-03      5.00000e+00      3.51487e-11
    1.15977e-01      1.44298e-03      5.00000e+00      3.57076e-11
    1.17848e-01      1.43909e-03      5.00000e+00      3.62756e-11
    1.19749e-01      1.43513e-03      5.00000e+00      3.68528e-11
    1.21680e-01      1.43110e-03      5.00000e+00      3.74392e-11
    1.23642e-01      1.42701e-03      5.00000e+00      3.80352e-11
    1.25637e-01      1.42286e-03      5.00000e+00      3.86407e-11
    1.27663e-01      1.41864e-03      5.00000e+00      3.92560e-11
    1.29722e-01      1.41435e-03      5.00000e+00      3.98813e-11
    1.31814e-01      1.41009e-03      5.00000e+00      4.05157e-11
    1.33940e-01      1.40597e-03      5.00000e+00      4.11581e-11
    1.36101e-01      1.40178e-03      5.00000e+00      4.18109e-11
    1.38296e-01      1.39752e-03      5.00000e+00      4.24742e-11
    1.40527e-01      1.39320e-03      5.00000e+00      4.31482e-11
    1.42794e-01      1.38881e-03      5.00000e+00      4.38331e-11
    1.45097e-01      1.38435e-03      5.00000e+00      4.45291e-11
    1.47437e-01      1.37981e-03      5.00000e+00      4.52363e-11
    1.49816e-01      1.37520e-03      5.00000e+00      4.59549e-11
    1.52232e-01      1.37052e-03      5.00000e+00      4.66851e-11
    1.54688e-01      1.36576e-03      5.00000e+00      4.74271e-11
    1.57183e-01      1.36092e-03      5.00000e+00      4.81811e-11
    1.59719e-01      1.35601e-03      5.00000e+00      4.89472e-11
    1.62295e-01      1.35112e-03      5.00000e+00      4.97243e-11
    1.64913e-01      1.34637e-03      5.00000e+00      5.05110e-11
    1.67574e-01      1.34154e-03      5.00000e+00      5.13104e-11
    1.70277e-01      1.33664e-03      5.00000e+00      5.21226e-11
    1.73024e-01      1.33165e-03      5.00000e+00      5.29480e-11
    1.75815e-01      1.32659e-03      5.00000e+00      5.37867e-11
    1.78652e-01      1.32144e-03      5.00000e+00      5.46389e-11
    1.81534e-01      1.31621e-03      5.00000e+00      5.55049e-11
    1.84462e-01      1.31090e-03      5.00000e+00      5.63849e-11
    1.87438e-01      1.30550e-03      5.00000e+00      5.72791e-11
    1.90462e-01      1.30001e-03      5.00000e+00      5.81877e-11
    1.93535e-01      1.29463e-03      5.00000e+00      5.91086e-11
    1.96657e-01      1.28930e-03      5.00000e+00      6.00428e-11
    1.99830e-01      1.28388e-03      5.00000e+00      6.09920e-11
    2.03054e-01      1.27838e-03      5.00000e+00      6.19565e-11
    2.06330e-01      1.27279e-03      5.00000e+00      6.29366e-11
    2.09659e-01      1.26711e-03      5.00000e+00      6.39325e-11
    2.13042e-01      1.26133e-03      5.00000e+00      6.49445e-11
    2.16479e-01      1.25547e-03      5.00000e+00      6.59729e-11
    2.19971e-01      1.24951e-03      5.00000e+00      6.70178e-11
    2.23521e-01      1.24359e-03      5.00000e+00      6.80800e-11
    2.27127e-01      1.23779e-03      5.00000e+00      6.91598e-11
    2.30791e-01      1.23188e-03      5.00000e+00      7.02571e-11
    2.34515e-01      1.22589e-03      5.00000e+00      7.13721e-11
    2.38299e-01      1.21980e-03      5.00000e+00      7.25050e-11
    2.42144e-01      1.21360e-03      5.00000e+00      7.36563e-11
    2.46051e-01      1.20731e-03      5.00000e+00      7.48262e-11
    2.50021e-01      1.20092e-03      5.00000e+00      7.60149e-11
    2.54055e-01      1.19457e-03      5.00000e+00      7.72162e-11
    2.58154e-01      1.18832e-03      5.00000e+00      7.84278e-11
    2.62320e-01      1.18196e-03      5.00000e+00      7.96589e-11
    2.66552e-01      1.17551e-03      5.00000e+00      8.09099e-11
    2.70853e-01      1.16895e-03      5.00000e+00      8.21810e-11
    2.75224e-01      1.16228e-03      5.00000e+00      8.34727e-11
    2.79665e-01      1.15551e-03      5.00000e+00      8.47853e-11
    2.84177e-01      1.14875e-03      5.00000e+00      8.61197e-11
    2.88763e-01      1.14211e-03      5.00000e+00      8.74772e-11
    2.93422e-01      1.13537e-03      5.00000e+00      8.88565e-11
    2.98157e-01      1.12852e-03      5.00000e+00      9.02581e-11
    3.02968e-01      1.12156e-03      5.00000e+00      9.16823e-11
    3.07857e-01      1.11448e-03      5.00000e+00      9.31295e-11
    3.12825e-01      1.10730e-03      5.00000e+00      9.46001e-11
    3.17873e-01      1.10035e-03      5.00000e+00      9.60902e-11
    3.23002e-01      1.09329e-03      5.00000e+00      9.76042e-11
    3.28214e-01      1.08612e-03      5.00000e+00      9.91426e-11
    3.33510e-01      1.07884e-03      5.00000e+00      1.00706e-10
    3.38892e-01      1.07144e-03      5.00000e+00      1.02294e-10
    3.44361e-01      1.06399e-03      5.00000e+00      1.03908e-10
    3.49918e-01      1.05671e-03      5.00000e+00      1.05543e-10
    3.55564e-01      1.04931e-03      5.00000e+00      1.07205e-10
    3.61302e-01      1.04179e-03      5.00000e+00      1.08894e-10
    3.67133e-01      1.03415e-03      5.00000e+00      1.10611e-10
    3.73057e-01      1.02639e-03      5.00000e+00      1.12355e-10
    3.79077e-01      1.01884e-03      5.00000e+00      1.14123e-10
    3.85194e-01      1.01120e-03      5.00000e+00      1.15919e-10
    3.91411e-01      1.00343e-03      5.00000e+00      1.17745e-10
    3.97727e-01      9.95538e-04      5.00000e+00      1.19600e-10
    4.04145e-01      9.87537e-04      5.00000e+00      1.21485e-10
    4.10667e-01      9.79754e-04      5.00000e+00      1.23401e-10
    4.17294e-01      9.71846e-04      5.00000e+00      1.25348e-10
    4.24029e-01      9.63810e-04      5.00000e+00      1.27326e-10
    4.30872e-01      9.55644e-04      5.00000e+00      1.29337e-10
    4.37825e-01      9.47541e-04      5.00000e+00      1.31368e-10
    4.44890e-01      9.39478e-04      5.00000e+00      1.33422e-10
    4.52070e-01      9.31285e-04      5.00000e+00      1.35509e-10
    4.59366e-01      9.22959e-04      5.00000e+00      1.37630e-10
    4.66779e-01      9.14617e-04      5.00000e+00      1.39785e-10
    4.74312e-01      9.06394e-04      5.00000e+00      1.41977e-10
    4.81966e-01      8.98039e-04      5.00000e+00      1.44204e-10
    4.89745e-01      8.89548e-04      5.00000e+00      1.46468e-10
    4.97648e-01      8.81056e-04      5.00000e+00      1.48765e-10
    5.05679e-01      8.72657e-04      5.00000e+00      1.51095e-10
    5.13840e-01      8.64123e-04      5.00000e+00      1.53463e-10
    5.22133e-01      8.55451e-04      5.00000e+00      1.55870e-10
    5.30559e-01      8.46876e-04      5.00000e+00      1.58310e-10
    5.39122e-01      8.38286e-04      5.00000e+00      1.60788e-10
    5.47823e-01      8.29558e-04      5.00000e+00      1.63306e-10
    5.56664e-01      8.20745e-04      5.00000e+00      1.65863e-10
    5.65648e-01      8.12101e-04      5.00000e+00      1.68456e-10
    5.74776e-01      8.03318e-04      5.00000e+00      1.71091e-10
    5.84053e-01      7.94393e-04      5.00000e+00      1.73769e-10
    5.93479e-01      7.85632e-04      5.00000e+00      1.76501e-10
    6.03057e-01      7.76790e-04      5.00000e+00      1.79279e-10
    6.12789e-01      7.67805e-04      5.00000e+00      1.82102e-10
    6.22679e-01      7.58921e-04      5.00000e+00      1.84952e-10
    6.32729e-01      7.50008e-04      5.00000e+00      1.87840e-10
    6.42940e-01      7.40950e-04      5.00000e+00      1.90774e-10
    6.53317e-01      7.31993e-04      5.00000e+00      1.93750e-10
    6.63861e-01      7.23003e-04      5.00000e+00      1.96771e-10
    6.74575e-01      7.13868e-04      5.00000e+00      1.99841e-10
    6.85462e-01      7.04881e-04      5.00000e+00      2.02936e-10
    6.96525e-01      6.95811e-04      5.00000e+00      2.06074e-10
    7.07766e-01      6.86626e-04      5.00000e+00      2.09265e-10
    7.19189e-01      6.77616e-04      5.00000e+00      2.12524e-10
    7.30796e-01      6.68460e-04      5.00000e+00      2.15836e-10
    7.42591e-01      6.59323e-04      5.00000e+00      2.19198e-10
    7.54576e-01      6.50228e-04      5.00000e+00      2.22611e-10
    7.66755e-01      6.40987e-04      5.00000e+00      2.26080e-10
    7.79130e-01      6.31928e-04      5.00000e+00      2.29587e-10
    7.91704e-01      6.22739e-04      5.00000e+00      2.33150e-10
    8.04482e-01      6.13584e-04      5.00000e+00      2.36771e-10
    8.17466e-01      6.04443e-04      5.00000e+00      2.40451e-10
    8.30660e-01      5.95225e-04      5.00000e+00      2.44192e-10
    8.44066e-01      5.86137e-04      5.00000e+00      2.48001e-10
    8.57689e-01      5.76902e-04      5.00000e+00      2.51870e-10
    8.71532e-01      5.67845e-04      5.00000e+00      2.55763e-10
    8.85599e-01      5.58655e-04      5.00000e+00      2.59717e-10
    8.99892e-01      5.49583e-04      5.00000e+00      2.63762e-10
    9.14416e-01      5.40433e-04      5.00000e+00      2.67880e-10
    9.29175e-01      5.31366e-04      5.00000e+00      2.72060e-10
    9.44171e-01      5.22253e-04      5.00000e+00      2.76307e-10
    9.59410e-01      5.13218e-04      5.00000e+00      2.80579e-10
    9.74895e-01      5.04147e-04      5.00000e+00      2.84899e-10
    9.90630e-01      4.95337e-04      5.00000e+00      2.92952e-10
    1.00662e+00      4.86550e-04      5.00000e+00      3.02616e-10
    1.02287e+00      4.77679e-04      5.00000e+00      3.08273e-10
    1.03937e+00      4.68679e-04      5.00000e+00      3.13043e-10
    1.05615e+00      4.59837e-04      5.00000e+00      3.17886e-10
    1.07320e+00      4.50919e-04      5.00000e+00      3.22803e-10
    1.09052e+00      4.42118e-04      5.00000e+00      3.27788e-10
    1.10812e+00      4.33310e-04      5.00000e+00      3.32854e-10
    1.12600e+00      4.24538e-04      5.00000e+00      3.38001e-10
    1.14418e+00      4.15853e-04      5.00000e+00      3.43213e-10
