    Er (keV)         SM dN/dE         BG dN/dE        BSM dN/dE (events/kg/day/keV)
    1.00100e-01      1.51655e+01      1.00000e+01      1.52321e-02
    1.01306e-01      1.50786e+01      1.00000e+01      1.50125e-02
    1.02526e-01      1.49905e+01      1.00000e+01      1.47902e-02
    1.03760e-01      1.49015e+01      1.00000e+01      1.45652e-02
    1.05010e-01      1.48114e+01      1.00000e+01      1.43376e-02
    1.06275e-01      1.47201e+01      1.00000e+01      1.41072e-02
    1.07555e-01      1.46278e+01      1.00000e+01      1.38740e-02
    1.08850e-01      1.45344e+01      1.00000e+01      1.36380e-02
    1.10161e-01      1.44398e+01      1.00000e+01      1.33991e-02
    1.11488e-01      1.43441e+01      1.00000e+01      1.31574e-02
    1.12830e-01      1.42473e+01      1.00000e+01      1.29128e-02
    1.14189e-01      1.41492e+01      1.00000e+01      1.26652e-02
    1.15565e-01      1.40500e+01      1.00000e+01      1.24146e-02
    1.16957e-01      1.39496e+01      1.00000e+01      1.21610e-02
    1.18365e-01      1.38480e+01      1.00000e+01      1.19044e-02
    1.19791e-01      1.37452e+01      1.00000e+01      1.16446e-02
    1.21234e-01      1.36411e+01      1.00000e+01      1.13818e-02
    1.22694e-01      1.35358e+01      1.00000e+01      1.11157e-02
    1.24172e-01      1.34292e+01      1.00000e+01      1.08465e-02
    1.25668e-01      1.33213e+01      1.00000e+01      1.05740e-02
    1.27182e-01      1.32121e+01      1.00000e+01      1.02982e-02
    1.28713e-01      1.31016e+01      1.00000e+01      1.00191e-02
    1.30264e-01      1.29898e+01      1.00000e+01      9.73664e-03
    1.31833e-01      1.28766e+01      1.00000e+01      9.45077e-03
    1.33421e-01      1.27620e+01      1.00000e+01      9.16145e-03
    1.35028e-01      1.26461e+01      1.00000e+01      8.86864e-03
    1.36655e-01      1.25288e+01      1.00000e+01      8.57230e-03
    1.38301e-01      1.24101e+01      1.00000e+01      8.27239e-03
    1.39967e-01      1.22899e+01      1.00000e+01      7.96887e-03
    1.41653e-01      1.21960e+01      1.00000e+01      7.80545e-03
    1.43360e-01      1.21080e+01      1.00000e+01      7.67627e-03
    1.45087e-01      1.20189e+01      1.00000e+01      7.54554e-03
    1.46834e-01      1.19287e+01      1.00000e+01      7.41323e-03
    1.48603e-01      1.18375e+01      1.00000e+01      7.27932e-03
    1.50393e-01      1.17451e+01      1.00000e+01      7.14380e-03
    1.52205e-01      1.16516e+01      1.00000e+01      7.00665e-03
    1.54039e-01      1.15570e+01      1.00000e+01      6.86784e-03
    1.55895e-01      1.14613e+01      1.00000e+01      6.72736e-03
    1.57773e-01      1.13644e+01      1.00000e+01      6.58519e-03
    1.59673e-01      1.12664e+01      1.00000e+01      6.44130e-03
    1.61597e-01      1.11671e+01      1.00000e+01      6.29568e-03
    1.63544e-01      1.10667e+01      1.00000e+01      6.14830e-03
    1.65514e-01      1.09650e+01      1.00000e+01      5.99915e-03
    1.67508e-01      1.08622e+01      1.00000e+01      5.84820e-03
    1.69526e-01      1.07580e+01      1.00000e+01      5.69542e-03
    1.71569e-01      1.06527e+01      1.00000e+01      5.54081e-03
    1.73636e-01      1.05460e+01      1.00000e+01      5.38433e-03
    1.75728e-01      1.04381e+01      1.00000e+01      5.22597e-03
    1.77845e-01      1.03289e+01      1.00000e+01      5.06570e-03
    1.79988e-01      1.02184e+01      1.00000e+01      4.90349e-03
    1.82156e-01      1.01253e+01      1.00000e+01      4.79301e-03
    1.84351e-01      1.00387e+01      1.00000e+01      4.70285e-03
    1.86572e-01      9.95108e+00      1.00000e+01      4.61161e-03
    1.88820e-01      9.86239e+00      1.00000e+01      4.51927e-03
    1.91095e-01      9.77264e+00      1.00000e+01      4.42582e-03
    1.93398e-01      9.68180e+00      1.00000e+01      4.33123e-03
    1.95728e-01      9.58987e+00      1.00000e+01      4.23551e-03
    1.98086e-01      9.49683e+00      1.00000e+01      4.13864e-03
    2.00473e-01      9.40266e+00      1.00000e+01      4.04059e-03
    2.02888e-01      9.30736e+00      1.00000e+01      3.94137e-03
    2.05333e-01      9.21092e+00      1.00000e+01      3.84095e-03
    2.07807e-01      9.11331e+00      1.00000e+01      3.73932e-03
    2.10311e-01      9.01452e+00      1.00000e+01      3.63646e-03
    2.12845e-01      8.91455e+00      1.00000e+01      3.53236e-03
    2.15410e-01      8.81336e+00      1.00000e+01      3.42701e-03
    2.18005e-01      8.71096e+00      1.00000e+01      3.32039e-03
    2.20632e-01      8.60733e+00      1.00000e+01      3.21248e-03
    2.23291e-01      8.52236e+00      1.00000e+01      3.14261e-03
    2.25981e-01      8.43872e+00      1.00000e+01      3.07653e-03
    2.28704e-01      8.35407e+00      1.00000e+01      3.00964e-03
    2.31460e-01      8.26840e+00      1.00000e+01      2.94196e-03
    2.34249e-01      8.18170e+00      1.00000e+01      2.87345e-03
    2.37072e-01      8.09395e+00      1.00000e+01      2.80412e-03
    2.39928e-01      8.00514e+00      1.00000e+01      2.73396e-03
    2.42820e-01      7.91526e+00      1.00000e+01      2.66295e-03
    2.45746e-01      7.82430e+00      1.00000e+01      2.59108e-03
    2.48707e-01      7.73224e+00      1.00000e+01      2.51835e-03
    2.51704e-01      7.63908e+00      1.00000e+01      2.44474e-03
    2.54737e-01      7.54479e+00      1.00000e+01      2.37024e-03
    2.57807e-01      7.44936e+00      1.00000e+01      2.29484e-03
    2.60913e-01      7.35278e+00      1.00000e+01      2.21854e-03
    2.64057e-01      7.27241e+00      1.00000e+01      2.16670e-03
    2.67239e-01      7.19291e+00      1.00000e+01      2.11695e-03
    2.70460e-01      7.11246e+00      1.00000e+01      2.06659e-03
    2.73719e-01      7.03103e+00      1.00000e+01      2.01563e-03
    2.77017e-01      6.94863e+00      1.00000e+01      1.96405e-03
    2.80356e-01      6.86523e+00      1.00000e+01      1.91185e-03
    2.83734e-01      6.78082e+00      1.00000e+01      1.85902e-03
    2.87153e-01      6.69540e+00      1.00000e+01      1.80555e-03
    2.90614e-01      6.60895e+00      1.00000e+01      1.75144e-03
    2.94116e-01      6.52145e+00      1.00000e+01      1.69667e-03
    2.97660e-01      6.43290e+00      1.00000e+01      1.64125e-03
    3.01247e-01      6.34328e+00      1.00000e+01      1.58516e-03
    3.04878e-01      6.26804e+00      1.00000e+01      1.54612e-03
    3.08552e-01      6.19313e+00      1.00000e+01      1.50803e-03
    3.12270e-01      6.11732e+00      1.00000e+01      1.46949e-03
    3.16033e-01      6.04060e+00      1.00000e+01      1.43048e-03
    3.19842e-01      5.96295e+00      1.00000e+01      1.39100e-03
    3.23696e-01      5.88436e+00      1.00000e+01      1.35105e-03
    3.27597e-01      5.80483e+00      1.00000e+01      1.31062e-03
    3.31545e-01      5.72434e+00      1.00000e+01      1.26969e-03
    3.35541e-01      5.64288e+00      1.00000e+01      1.22828e-03
    3.39585e-01      5.56043e+00      1.00000e+01      1.18636e-03
    3.43677e-01      5.48348e+00      1.00000e+01      1.15009e-03
    3.47819e-01      5.41348e+00      1.00000e+01      1.12087e-03
    3.52011e-01      5.34263e+00      1.00000e+01      1.09130e-03
    3.56253e-01      5.27093e+00      1.00000e+01      1.06137e-03
    3.60547e-01      5.19837e+00      1.00000e+01      1.03108e-03
    3.64892e-01      5.12493e+00      1.00000e+01      1.00042e-03
    3.69289e-01      5.05061e+00      1.00000e+01      9.69394e-04
    3.73740e-01      4.97539e+00      1.00000e+01      9.37993e-04
    3.78244e-01      4.89926e+00      1.00000e+01      9.06214e-04
    3.82803e-01      4.82406e+00      1.00000e+01      8.75476e-04
    3.87416e-01      4.75852e+00      1.00000e+01      8.52561e-04
    3.92085e-01      4.69219e+00      1.00000e+01      8.29371e-04
    3.96811e-01      4.62506e+00      1.00000e+01      8.05901e-04
    4.01593e-01      4.55712e+00      1.00000e+01      7.82148e-04
    4.06433e-01      4.48837e+00      1.00000e+01      7.58108e-04
    4.11331e-01      4.41878e+00      1.00000e+01      7.33779e-04
    4.16289e-01      4.34835e+00      1.00000e+01      7.09156e-04
    4.21306e-01      4.27708e+00      1.00000e+01      6.84237e-04
    4.26383e-01      4.21338e+00      1.00000e+01      6.64415e-04
    4.31522e-01      4.15133e+00      1.00000e+01      6.45896e-04
    4.36723e-01      4.08852e+00      1.00000e+01      6.27154e-04
    4.41987e-01      4.02496e+00      1.00000e+01      6.08186e-04
    4.47314e-01      3.96063e+00      1.00000e+01      5.88990e-04
    4.52705e-01      3.89553e+00      1.00000e+01      5.69562e-04
    4.58161e-01      3.82964e+00      1.00000e+01      5.49900e-04
    4.63683e-01      3.76459e+00      1.00000e+01      5.30891e-04
    4.69271e-01      3.70665e+00      1.00000e+01      5.15954e-04
    4.74927e-01      3.64802e+00      1.00000e+01      5.00838e-04
    4.80651e-01      3.58868e+00      1.00000e+01      4.85540e-04
    4.86444e-01      3.52862e+00      1.00000e+01      4.70057e-04
    4.92307e-01      3.46783e+00      1.00000e+01      4.54387e-04
    4.98241e-01      3.40632e+00      1.00000e+01      4.38528e-04
    5.04246e-01      3.34576e+00      1.00000e+01      4.23255e-04
    5.10323e-01      3.29127e+00      1.00000e+01      4.10895e-04
    5.16474e-01      3.23611e+00      1.00000e+01      3.98386e-04
    5.22699e-01      3.18029e+00      1.00000e+01      3.85727e-04
    5.28999e-01      3.12380e+00      1.00000e+01      3.72914e-04
    5.35375e-01      3.06663e+00      1.00000e+01      3.59947e-04
    5.41828e-01      3.00876e+00      1.00000e+01      3.46824e-04
    5.48358e-01      2.95607e+00      1.00000e+01      3.35876e-04
    5.54967e-01      2.90451e+00      1.00000e+01      3.25503e-04
    5.61656e-01      2.85234e+00      1.00000e+01      3.15004e-04
    5.68426e-01      2.79953e+00      1.00000e+01      3.04380e-04
    5.75277e-01      2.74609e+00      1.00000e+01      2.93627e-04
    5.82211e-01      2.69201e+00      1.00000e+01      2.82745e-04
    5.89228e-01      2.64273e+00      1.00000e+01      2.73630e-04
    5.96330e-01      2.59426e+00      1.00000e+01      2.64896e-04
    6.03518e-01      2.54521e+00      1.00000e+01      2.56057e-04
    6.10792e-01      2.49557e+00      1.00000e+01      2.47111e-04
    6.18154e-01      2.44533e+00      1.00000e+01      2.38058e-04
    6.25604e-01      2.39588e+00      1.00000e+01      2.29320e-04
    6.33145e-01      2.35072e+00      1.00000e+01      2.21971e-04
    6.40776e-01      2.30501e+00      1.00000e+01      2.14533e-04
    6.48500e-01      2.25876e+00      1.00000e+01      2.07006e-04
    6.56316e-01      2.21194e+00      1.00000e+01      1.99388e-04
    6.64227e-01      2.16457e+00      1.00000e+01      1.91678e-04
    6.72233e-01      2.12224e+00      1.00000e+01      1.85428e-04
    6.80335e-01      2.07942e+00      1.00000e+01      1.79106e-04
    6.88536e-01      2.03607e+00      1.00000e+01      1.72708e-04
    6.96835e-01      1.99221e+00      1.00000e+01      1.66232e-04
    7.05234e-01      1.94824e+00      1.00000e+01      1.59780e-04
    7.13734e-01      1.90847e+00      1.00000e+01      1.54397e-04
    7.22337e-01      1.86823e+00      1.00000e+01      1.48950e-04
    7.31044e-01      1.82750e+00      1.00000e+01      1.43436e-04
    7.39855e-01      1.78628e+00      1.00000e+01      1.37856e-04
    7.48773e-01      1.74670e+00      1.00000e+01      1.32662e-04
    7.57798e-01      1.70941e+00      1.00000e+01      1.27986e-04
    7.66932e-01      1.67168e+00      1.00000e+01      1.23255e-04
    7.76176e-01      1.63348e+00      1.00000e+01      1.18467e-04
    7.85532e-01      1.59499e+00      1.00000e+01      1.13656e-04
    7.95000e-01      1.55983e+00      1.00000e+01      1.09621e-04
    8.04583e-01      1.52424e+00      1.00000e+01      1.05538e-04
    8.14281e-01      1.48823e+00      1.00000e+01      1.01406e-04
    8.24096e-01      1.45178e+00      1.00000e+01      9.72239e-05
    8.34029e-01      1.41854e+00      1.00000e+01      9.36208e-05
    8.44082e-01      1.38548e+00      1.00000e+01      9.00752e-05
    8.54257e-01      1.35202e+00      1.00000e+01      8.64868e-05
    8.64553e-01      1.31816e+00      1.00000e+01      8.28552e-05
    8.74974e-01      1.28709e+00      1.00000e+01      7.97300e-05
    8.85521e-01      1.25605e+00      1.00000e+01      7.66399e-05
    8.96195e-01      1.22465e+00      1.00000e+01      7.35125e-05
    9.06997e-01      1.19315e+00      1.00000e+01      7.03928e-05
    9.17930e-01      1.16434e+00      1.00000e+01      6.77198e-05
    9.28994e-01      1.13519e+00      1.00000e+01      6.50145e-05
    9.40192e-01      1.10568e+00      1.00000e+01      6.22766e-05
    9.51525e-01      1.07719e+00      1.00000e+01      5.97067e-05
    9.62994e-01      1.05004e+00      1.00000e+01      5.73491e-05
    9.74602e-01      1.02255e+00      1.00000e+01      5.49630e-05
    9.86350e-01      9.94738e-01      1.00000e+01      5.25482e-05
    9.98239e-01      9.69338e-01      1.00000e+01      5.04737e-05
    1.01027e+00      9.43707e-01      1.00000e+01      4.83844e-05
    1.02245e+00      9.17768e-01      1.00000e+01      4.62700e-05
    1.03477e+00      8.93154e-01      1.00000e+01      4.43375e-05
    1.04725e+00      8.69205e-01      1.00000e+01      4.25034e-05
    1.05987e+00      8.44967e-01      1.00000e+01      4.06471e-05
    1.07265e+00      8.21400e-01      1.00000e+01      3.88864e-05
    1.08558e+00      7.98891e-01      1.00000e+01      3.72689e-05
    1.09866e+00      7.76111e-01      1.00000e+01      3.56318e-05
    1.11190e+00      7.53881e-01      1.00000e+01      3.40503e-05
    1.12531e+00      7.33101e-01      1.00000e+01      3.26066e-05
    1.13887e+00      7.12070e-01      1.00000e+01      3.11456e-05
    1.15260e+00      6.91324e-01      1.00000e+01      2.97410e-05
    1.16649e+00      6.71367e-01      1.00000e+01      2.84628e-05
    1.18055e+00      6.51170e-01      1.00000e+01      2.71692e-05
    1.19478e+00      6.31693e-01      1.00000e+01      2.59433e-05
    1.20919e+00      6.13109e-01      1.00000e+01      2.48002e-05
    1.22376e+00      5.94301e-01      1.00000e+01      2.36433e-05
    1.23851e+00      5.76450e-01      1.00000e+01      2.25800e-05
    1.25344e+00      5.58949e-01      1.00000e+01      2.15551e-05
    1.26855e+00      5.41236e-01      1.00000e+01      2.05180e-05
    1.28384e+00      5.24908e-01      1.00000e+01      1.96060e-05
    1.29932e+00      5.08409e-01      1.00000e+01      1.86853e-05
    1.31498e+00      4.92268e-01      1.00000e+01      1.77998e-05
    1.33083e+00      4.76869e-01      1.00000e+01      1.69814e-05
    1.34687e+00      4.61285e-01      1.00000e+01      1.61532e-05
    1.36311e+00      4.46686e-01      1.00000e+01      1.54080e-05
    1.37954e+00      4.32129e-01      1.00000e+01      1.46711e-05
    1.39617e+00      4.17895e-01      1.00000e+01      1.39622e-05
    1.41300e+00      4.04281e-01      1.00000e+01      1.33033e-05
    1.43003e+00      3.90505e-01      1.00000e+01      1.26367e-05
    1.44727e+00      3.77738e-01      1.00000e+01      1.20465e-05
    1.46471e+00      3.64816e-01      1.00000e+01      1.14492e-05
    1.48237e+00      3.52498e-01      1.00000e+01      1.08965e-05
    1.50024e+00      3.40388e-01      1.00000e+01      1.03614e-05
    1.51832e+00      3.28561e-01      1.00000e+01      9.84873e-06
    1.53662e+00      3.17175e-01      1.00000e+01      9.36926e-06
    1.55515e+00      3.05868e-01      1.00000e+01      8.89722e-06
    1.57389e+00      2.95156e-01      1.00000e+01      8.46459e-06
    1.59287e+00      2.84391e-01      1.00000e+01      8.03118e-06
    1.61207e+00      2.74297e-01      1.00000e+01      7.63968e-06
    1.63150e+00      2.64082e-01      1.00000e+01      7.24347e-06
    1.65116e+00      2.54562e-01      1.00000e+01      6.88918e-06
    1.67107e+00      2.44927e-01      1.00000e+01      6.53065e-06
    1.69121e+00      2.35908e-01      1.00000e+01      6.20851e-06
    1.71160e+00      2.26810e-01      1.00000e+01      5.88409e-06
    1.73223e+00      2.18290e-01      1.00000e+01      5.59159e-06
    1.75311e+00      2.09707e-01      1.00000e+01      5.29751e-06
    1.77424e+00      2.01658e-01      1.00000e+01      5.02972e-06
    1.79563e+00      1.93597e-01      1.00000e+01      4.76250e-06
    1.81728e+00      1.85982e-01      1.00000e+01      4.51648e-06
    1.83918e+00      1.78437e-01      1.00000e+01      4.27473e-06
    1.86135e+00      1.71219e-01      1.00000e+01      4.04877e-06
    1.88379e+00      1.64175e-01      1.00000e+01      3.83110e-06
    1.90650e+00      1.57349e-01      1.00000e+01      3.62358e-06
    1.92948e+00      1.50783e-01      1.00000e+01      3.42803e-06
    1.95274e+00      1.44293e-01      1.00000e+01      3.23672e-06
    1.97628e+00      1.38256e-01      1.00000e+01      3.06122e-06
    2.00010e+00      1.32261e-01      1.00000e+01      2.88888e-06
    2.02421e+00      1.26459e-01      1.00000e+01      2.72774e-06
    2.04861e+00      1.20864e-01      1.00000e+01      2.57403e-06
    2.07331e+00      1.15407e-01      1.00000e+01      2.42545e-06
    2.09830e+00      1.10267e-01      1.00000e+01      2.28922e-06
    2.12359e+00      1.05214e-01      1.00000e+01      2.15670e-06
    2.14919e+00      1.00350e-01      1.00000e+01      2.03152e-06
    2.17510e+00      9.57011e-02      1.00000e+01      1.91422e-06
    2.20132e+00      9.11546e-02      1.00000e+01      1.80094e-06
    2.22785e+00      8.68158e-02      1.00000e+01      1.69533e-06
    2.25471e+00      8.26428e-02      1.00000e+01      1.59579e-06
    2.28189e+00      7.85756e-02      1.00000e+01      1.50028e-06
    2.30940e+00      7.46932e-02      1.00000e+01      1.41139e-06
    2.33723e+00      7.09684e-02      1.00000e+01      1.32740e-06
    2.36541e+00      6.73482e-02      1.00000e+01      1.24667e-06
    2.39392e+00      6.38652e-02      1.00000e+01      1.17005e-06
    2.42278e+00      6.05641e-02      1.00000e+01      1.09858e-06
    2.45198e+00      5.73625e-02      1.00000e+01      1.03006e-06
    2.48154e+00      5.42638e-02      1.00000e+01      9.64572e-07
    2.51146e+00      5.13267e-02      1.00000e+01      9.03574e-07
    2.54173e+00      4.85158e-02      1.00000e+01      8.45978e-07
    2.57237e+00      4.58104e-02      1.00000e+01      7.91087e-07
    2.60338e+00      4.32111e-02      1.00000e+01      7.38871e-07
    2.63476e+00      4.07288e-02      1.00000e+01      6.89772e-07
    2.66652e+00      3.83681e-02      1.00000e+01      6.43777e-07
    2.69867e+00      3.61105e-02      1.00000e+01      6.00226e-07
    2.73120e+00      3.39514e-02      1.00000e+01      5.59080e-07
    2.76412e+00      3.18826e-02      1.00000e+01      5.20266e-07
    2.79744e+00      2.99147e-02      1.00000e+01      4.83942e-07
    2.83116e+00      2.80623e-02      1.00000e+01      4.50036e-07
    2.86529e+00      2.62937e-02      1.00000e+01      4.18132e-07
    2.89983e+00      2.46042e-02      1.00000e+01      3.88192e-07
    2.93479e+00      2.29946e-02      1.00000e+01      3.60168e-07
    2.97017e+00      2.14663e-02      1.00000e+01      3.33979e-07
    3.00597e+00      2.00142e-02      1.00000e+01      3.09488e-07
    3.04220e+00      1.86359e-02      1.00000e+01      2.86432e-07
    3.07888e+00      1.73390e-02      1.00000e+01      2.64920e-07
    3.11599e+00      1.61108e-02      1.00000e+01      2.44708e-07
    3.15355e+00      1.49504e-02      1.00000e+01      2.25761e-07
    3.19157e+00      1.38526e-02      1.00000e+01      2.08022e-07
    3.23004e+00      1.28167e-02      1.00000e+01      1.91445e-07
    3.26898e+00      1.18414e-02      1.00000e+01      1.75921e-07
    3.30839e+00      1.09248e-02      1.00000e+01      1.61377e-07
    3.34827e+00      1.00643e-02      1.00000e+01      1.47778e-07
    3.38863e+00      9.25800e-03      1.00000e+01      1.35090e-07
    3.42948e+00      8.50391e-03      1.00000e+01      1.23283e-07
    3.47082e+00      7.79977e-03      1.00000e+01      1.12322e-07
