    Er (keV)         SM dN/dE         BG dN/dE        BSM dN/dE (events/kg/day/keV)
    1.01000e-02      8.80575e-01      1.00000e+01      3.01319e-04
    1.02859e-02      8.72702e-01      1.00000e+01      3.06865e-04
    1.04753e-02      8.64682e-01      1.00000e+01      3.12514e-04
    1.06682e-02      8.56514e-01      1.00000e+01      3.18269e-04
    1.08647e-02      8.48193e-01      1.00000e+01      3.24130e-04
    1.10648e-02      8.39718e-01      1.00000e+01      3.30100e-04
    1.12686e-02      8.31085e-01      1.00000e+01      3.36181e-04
    1.14763e-02      8.22292e-01      1.00000e+01      3.42376e-04
    1.16878e-02      8.13335e-01      1.00000e+01      3.48685e-04
    1.19032e-02      8.04212e-01      1.00000e+01      3.55112e-04
    1.21226e-02      7.94919e-01      1.00000e+01      3.61658e-04
    1.23462e-02      7.85453e-01      1.00000e+01      3.68326e-04
    1.25738e-02      7.75811e-01      1.00000e+01      3.75118e-04
    1.28057e-02      7.65990e-01      1.00000e+01      3.82036e-04
    1.30420e-02      7.55987e-01      1.00000e+01      3.89083e-04
    1.32826e-02      7.45797e-01      1.00000e+01      3.96261e-04
    1.35276e-02      7.35419e-01      1.00000e+01      4.03572e-04
    1.37773e-02      7.24847e-01      1.00000e+01      4.11020e-04
    1.40316e-02      7.14078e-01      1.00000e+01      4.18605e-04
    1.42906e-02      7.03110e-01      1.00000e+01      4.26332e-04
    1.45544e-02      6.91937e-01      1.00000e+01      4.34202e-04
    1.48231e-02      6.80557e-01      1.00000e+01      4.42219e-04
    1.50968e-02      6.68965e-01      1.00000e+01      4.50385e-04
    1.53757e-02      6.57158e-01      1.00000e+01      4.58702e-04
    1.56597e-02      6.45131e-01      1.00000e+01      4.67174e-04
    1.59489e-02      6.32880e-01      1.00000e+01      4.75804e-04
    1.62436e-02      6.20402e-01      1.00000e+01      4.84594e-04
    1.65437e-02      6.07692e-01      1.00000e+01      4.93548e-04
    1.68494e-02      5.94745e-01      1.00000e+01      5.02668e-04
    1.71608e-02      5.81558e-01      1.00000e+01      5.11957e-04
    1.74780e-02      5.68126e-01      1.00000e+01      5.21420e-04
    1.78011e-02      5.54444e-01      1.00000e+01      5.31058e-04
    1.81302e-02      5.40507e-01      1.00000e+01      5.40875e-04
    1.84654e-02      5.26312e-01      1.00000e+01      5.50875e-04
    1.88068e-02      5.11852e-01      1.00000e+01      5.61061e-04
    1.91546e-02      4.97124e-01      1.00000e+01      5.71436e-04
    1.95089e-02      4.82122e-01      1.00000e+01      5.82004e-04
    1.98697e-02      4.66841e-01      1.00000e+01      5.92768e-04
    2.02372e-02      4.51276e-01      1.00000e+01      6.03733e-04
    2.06116e-02      4.35421e-01      1.00000e+01      6.14901e-04
    2.09930e-02      4.19272e-01      1.00000e+01      6.26278e-04
    2.13814e-02      4.02823e-01      1.00000e+01      6.37865e-04
    2.17770e-02      3.86067e-01      1.00000e+01      6.49668e-04
    2.21800e-02      3.69001e-01      1.00000e+01      6.61691e-04
    2.25905e-02      3.51617e-01      1.00000e+01      6.73937e-04
    2.30087e-02      3.33909e-01      1.00000e+01      6.86410e-04
    2.34346e-02      3.15873e-01      1.00000e+01      6.99116e-04
    2.38684e-02      2.97501e-01      1.00000e+01      7.12058e-04
    2.43103e-02      2.78788e-01      1.00000e+01      7.25240e-04
    2.47604e-02      2.59726e-01      1.00000e+01      7.38668e-04
    2.52189e-02      2.40311e-01      1.00000e+01      7.52345e-04
    2.56859e-02      2.20534e-01      1.00000e+01      7.66276e-04
    2.61615e-02      2.00390e-01      1.00000e+01      7.80467e-04
    2.66461e-02      1.79871e-01      1.00000e+01      7.94921e-04
    2.71396e-02      1.58971e-01      1.00000e+01      8.09644e-04
    2.76423e-02      1.37682e-01      1.00000e+01      8.24640e-04
    2.81543e-02      1.15997e-01      1.00000e+01      8.39916e-04
    2.86759e-02      9.39093e-02      1.00000e+01      8.55475e-04
    2.92072e-02      7.14109e-02      1.00000e+01      8.71324e-04
    2.97483e-02      4.84942e-02      1.00000e+01      8.87467e-04
    3.02995e-02      2.51514e-02      1.00000e+01      9.03911e-04
    3.08610e-02      2.34183e-02      1.00000e+01      9.20658e-04
    3.14329e-02      2.29980e-02      1.00000e+01      9.37717e-04
    3.20154e-02      2.25699e-02      1.00000e+01      9.55093e-04
    3.26087e-02      2.21338e-02      1.00000e+01      9.72792e-04
    3.32131e-02      2.16896e-02      1.00000e+01      9.90821e-04
    3.38287e-02      2.12372e-02      1.00000e+01      1.00918e-03
    3.44558e-02      2.07763e-02      1.00000e+01      1.02789e-03
    3.50945e-02      2.03069e-02      1.00000e+01      1.04694e-03
    3.57451e-02      1.98287e-02      1.00000e+01      1.06635e-03
    3.64078e-02      1.93417e-02      1.00000e+01      1.08612e-03
    3.70828e-02      1.88456e-02      1.00000e+01      1.10625e-03
    3.77704e-02      1.83403e-02      1.00000e+01      1.12676e-03
    3.84707e-02      1.78256e-02      1.00000e+01      1.14765e-03
    3.91841e-02      1.73013e-02      1.00000e+01      1.16893e-03
    3.99107e-02      1.67673e-02      1.00000e+01      1.19060e-03
    4.06509e-02      1.62233e-02      1.00000e+01      1.21268e-03
    4.14048e-02      1.56693e-02      1.00000e+01      1.23517e-03
    4.21727e-02      1.51049e-02      1.00000e+01      1.25808e-03
    4.29549e-02      1.45300e-02      1.00000e+01      1.28141e-03
    4.37516e-02      1.39445e-02      1.00000e+01      1.30517e-03
    4.45631e-02      1.33481e-02      1.00000e+01      1.32938e-03
    4.53898e-02      1.27405e-02      1.00000e+01      1.35404e-03
    4.62318e-02      1.21217e-02      1.00000e+01      1.37915e-03
    4.70894e-02      1.14914e-02      1.00000e+01      1.40474e-03
    4.79630e-02      1.08494e-02      1.00000e+01      1.43080e-03
    4.88528e-02      1.01954e-02      1.00000e+01      1.45734e-03
    4.97592e-02      9.52924e-03      1.00000e+01      1.48438e-03
    5.06825e-02      8.85072e-03      1.00000e+01      1.51191e-03
    5.16229e-02      8.34414e-03      1.00000e+01      1.54006e-03
    5.25807e-02      8.02415e-03      1.00000e+01      1.56881e-03
    5.35564e-02      7.69822e-03      1.00000e+01      1.59811e-03
    5.45503e-02      7.36622e-03      1.00000e+01      1.62795e-03
    5.55626e-02      7.02805e-03      1.00000e+01      1.65834e-03
    5.65937e-02      6.68360e-03      1.00000e+01      1.68930e-03
    5.76440e-02      6.33274e-03      1.00000e+01      1.72083e-03
    5.87138e-02      5.97536e-03      1.00000e+01      1.75295e-03
    5.98035e-02      5.61133e-03      1.00000e+01      1.78566e-03
    6.09135e-02      5.24054e-03      1.00000e+01      1.81899e-03
    6.20441e-02      4.86285e-03      1.00000e+01      1.85293e-03
    6.31957e-02      4.47814e-03      1.00000e+01      1.88751e-03
    6.43688e-02      4.08628e-03      1.00000e+01      1.92273e-03
    6.55636e-02      3.68713e-03      1.00000e+01      1.95860e-03
    6.67807e-02      3.28057e-03      1.00000e+01      1.99514e-03
    6.80204e-02      2.86644e-03      1.00000e+01      2.03236e-03
    6.92831e-02      2.44462e-03      1.00000e+01      2.07027e-03
    7.05693e-02      2.01495e-03      1.00000e+01      2.10889e-03
    7.18794e-02      1.57729e-03      1.00000e+01      2.14822e-03
    7.32139e-02      1.53632e-03      1.00000e+01      2.18781e-03
    7.45732e-02      1.53322e-03      1.00000e+01      2.22808e-03
    7.59578e-02      1.53006e-03      1.00000e+01      2.26911e-03
    7.73681e-02      1.52685e-03      1.00000e+01      2.31089e-03
    7.88046e-02      1.52357e-03      1.00000e+01      2.35346e-03
    8.02678e-02      1.52023e-03      1.00000e+01      2.39681e-03
    8.17582e-02      1.51683e-03      1.00000e+01      2.44097e-03
    8.32764e-02      1.51337e-03      1.00000e+01      2.48595e-03
    8.48227e-02      1.50984e-03      1.00000e+01      2.53177e-03
    8.63979e-02      1.50625e-03      1.00000e+01      2.57844e-03
    8.80023e-02      1.50259e-03      1.00000e+01      2.62598e-03
    8.96365e-02      1.49886e-03      1.00000e+01      2.67440e-03
    9.13011e-02      1.49507e-03      1.00000e+01      2.72372e-03
    9.29966e-02      1.49123e-03      1.00000e+01      2.77490e-03
    9.47237e-02      1.48755e-03      1.00000e+01      2.83553e-03
    9.64829e-02      1.48380e-03      1.00000e+01      2.89729e-03
    9.82748e-02      1.47998e-03      1.00000e+01      2.96019e-03
    1.00100e-01      1.47610e-03      1.00000e+01      3.02426e-03
    1.01959e-01      1.47214e-03      1.00000e+01      3.08953e-03
    1.03853e-01      1.46810e-03      1.00000e+01      3.15601e-03
    1.05782e-01      1.46400e-03      1.00000e+01      3.22372e-03
    1.07747e-01      1.45981e-03      1.00000e+01      3.29269e-03
    1.09748e-01      1.45555e-03      1.00000e+01      3.36295e-03
    1.11786e-01      1.45121e-03      1.00000e+01      3.43451e-03
    1.13863e-01      1.44680e-03      1.00000e+01      3.50641e-03
    1.15978e-01      1.44249e-03      1.00000e+01      3.57052e-03
    1.18132e-01      1.43809e-03      1.00000e+01      3.63581e-03
    1.20326e-01      1.43361e-03      1.00000e+01      3.70233e-03
    1.22562e-01      1.42905e-03      1.00000e+01      3.77007e-03
    1.24838e-01      1.42440e-03      1.00000e+01      3.83908e-03
    1.27157e-01      1.41967e-03      1.00000e+01      3.90937e-03
    1.29520e-01      1.41485e-03      1.00000e+01      3.98097e-03
    1.31926e-01      1.40993e-03      1.00000e+01      4.05390e-03
    1.34376e-01      1.40493e-03      1.00000e+01      4.12819e-03
    1.36873e-01      1.40007e-03      1.00000e+01      4.20356e-03
    1.39416e-01      1.39513e-03      1.00000e+01      4.28033e-03
    1.42006e-01      1.39009e-03      1.00000e+01      4.35852e-03
    1.44644e-01      1.38496e-03      1.00000e+01      4.43816e-03
    1.47331e-01      1.37974e-03      1.00000e+01      4.51929e-03
    1.50068e-01      1.37442e-03      1.00000e+01      4.60192e-03
    1.52857e-01      1.36900e-03      1.00000e+01      4.68609e-03
    1.55697e-01      1.36351e-03      1.00000e+01      4.77178e-03
    1.58589e-01      1.35814e-03      1.00000e+01      4.85875e-03
    1.61536e-01      1.35267e-03      1.00000e+01      4.94734e-03
    1.64537e-01      1.34710e-03      1.00000e+01      5.03758e-03
    1.67594e-01      1.34143e-03      1.00000e+01      5.12950e-03
    1.70708e-01      1.33565e-03      1.00000e+01      5.22312e-03
    1.73880e-01      1.32977e-03      1.00000e+01      5.31848e-03
    1.77111e-01      1.32385e-03      1.00000e+01      5.41553e-03
    1.80402e-01      1.31799e-03      1.00000e+01      5.51418e-03
    1.83754e-01      1.31203e-03      1.00000e+01      5.61466e-03
    1.87168e-01      1.30596e-03      1.00000e+01      5.71700e-03
    1.90646e-01      1.29978e-03      1.00000e+01      5.82125e-03
    1.94189e-01      1.29348e-03      1.00000e+01      5.92744e-03
    1.97797e-01      1.28713e-03      1.00000e+01      6.03553e-03
    2.01472e-01      1.28086e-03      1.00000e+01      6.14537e-03
    2.05216e-01      1.27448e-03      1.00000e+01      6.25725e-03
    2.09030e-01      1.26798e-03      1.00000e+01      6.37120e-03
    2.12914e-01      1.26136e-03      1.00000e+01      6.48728e-03
    2.16870e-01      1.25461e-03      1.00000e+01      6.60552e-03
    2.20900e-01      1.24795e-03      1.00000e+01      6.72569e-03
    2.25005e-01      1.24123e-03      1.00000e+01      6.84802e-03
    2.29187e-01      1.23439e-03      1.00000e+01      6.97263e-03
    2.33446e-01      1.22741e-03      1.00000e+01      7.09955e-03
    2.37784e-01      1.22031e-03      1.00000e+01      7.22883e-03
    2.42203e-01      1.21329e-03      1.00000e+01      7.36083e-03
    2.46704e-01      1.20620e-03      1.00000e+01      7.49535e-03
    2.51289e-01      1.19898e-03      1.00000e+01      7.63238e-03
    2.55959e-01      1.19162e-03      1.00000e+01      7.77195e-03
    2.60715e-01      1.18419e-03      1.00000e+01      7.91362e-03
    2.65561e-01      1.17683e-03      1.00000e+01      8.05650e-03
    2.70496e-01      1.16934e-03      1.00000e+01      8.20203e-03
    2.75523e-01      1.16171e-03      1.00000e+01      8.35027e-03
    2.80643e-01      1.15395e-03      1.00000e+01      8.50130e-03
    2.85859e-01      1.14631e-03      1.00000e+01      8.65563e-03
    2.91172e-01      1.13853e-03      1.00000e+01      8.81283e-03
    2.96583e-01      1.13061e-03      1.00000e+01      8.97296e-03
    3.02095e-01      1.12259e-03      1.00000e+01      9.13599e-03
    3.07710e-01      1.11465e-03      1.00000e+01      9.30171e-03
    3.13429e-01      1.10657e-03      1.00000e+01      9.47051e-03
    3.19254e-01      1.09833e-03      1.00000e+01      9.64245e-03
    3.25187e-01      1.09010e-03      1.00000e+01      9.81758e-03
    3.31231e-01      1.08184e-03      1.00000e+01      9.99597e-03
    3.37387e-01      1.07344e-03      1.00000e+01      1.01777e-02
    3.43658e-01      1.06491e-03      1.00000e+01      1.03626e-02
    3.50045e-01      1.05648e-03      1.00000e+01      1.05500e-02
    3.56551e-01      1.04789e-03      1.00000e+01      1.07410e-02
    3.63178e-01      1.03913e-03      1.00000e+01      1.09354e-02
    3.69928e-01      1.03049e-03      1.00000e+01      1.11335e-02
    3.76804e-01      1.02170e-03      1.00000e+01      1.13353e-02
    3.83807e-01      1.01274e-03      1.00000e+01      1.15409e-02
    3.90941e-01      1.00389e-03      1.00000e+01      1.17498e-02
    3.98207e-01      9.94897e-04      1.00000e+01      1.19626e-02
    4.05609e-01      9.85750e-04      1.00000e+01      1.21793e-02
    4.13148e-01      9.76712e-04      1.00000e+01      1.23996e-02
    4.20827e-01      9.67505e-04      1.00000e+01      1.26240e-02
    4.28649e-01      9.58218e-04      1.00000e+01      1.28524e-02
    4.36616e-01      9.48955e-04      1.00000e+01      1.30846e-02
    4.44731e-01      9.39519e-04      1.00000e+01      1.33212e-02
    4.52998e-01      9.30120e-04      1.00000e+01      1.35618e-02
    4.61418e-01      9.20626e-04      1.00000e+01      1.38068e-02
    4.69994e-01      9.11030e-04      1.00000e+01      1.40562e-02
    4.78730e-01      9.01477e-04      1.00000e+01      1.43098e-02
    4.87628e-01      8.91746e-04      1.00000e+01      1.45682e-02
    4.96692e-01      8.82091e-04      1.00000e+01      1.48308e-02
    5.05925e-01      8.72288e-04      1.00000e+01      1.50982e-02
    5.15329e-01      8.62483e-04      1.00000e+01      1.53702e-02
    5.24907e-01      8.52605e-04      1.00000e+01      1.56471e-02
    5.34664e-01      8.42670e-04      1.00000e+01      1.59290e-02
    5.44603e-01      8.32708e-04      1.00000e+01      1.62158e-02
    5.54726e-01      8.22663e-04      1.00000e+01      1.65089e-02
    5.65037e-01      8.12619e-04      1.00000e+01      1.68090e-02
    5.75540e-01      8.02489e-04      1.00000e+01      1.71134e-02
    5.86238e-01      7.92365e-04      1.00000e+01      1.74208e-02
    5.97135e-01      7.82167e-04      1.00000e+01      1.77339e-02
    6.08235e-01      7.71954e-04      1.00000e+01      1.80527e-02
    6.19541e-01      7.61700e-04      1.00000e+01      1.83770e-02
    6.31057e-01      7.51392e-04      1.00000e+01      1.87069e-02
    6.42788e-01      7.41093e-04      1.00000e+01      1.90424e-02
    6.54736e-01      7.30685e-04      1.00000e+01      1.93839e-02
    6.66907e-01      7.20356e-04      1.00000e+01      1.97281e-02
    6.79304e-01      7.09919e-04      1.00000e+01      2.00793e-02
    6.91931e-01      6.99499e-04      1.00000e+01      2.04392e-02
    7.04793e-01      6.89056e-04      1.00000e+01      2.08056e-02
    7.17894e-01      6.78531e-04      1.00000e+01      2.11785e-02
    7.31239e-01      6.68089e-04      1.00000e+01      2.15578e-02
    7.44832e-01      6.57582e-04      1.00000e+01      2.19439e-02
    7.58678e-01      6.47034e-04      1.00000e+01      2.23368e-02
    7.72781e-01      6.36552e-04      1.00000e+01      2.27348e-02
    7.87146e-01      6.26019e-04      1.00000e+01      2.31415e-02
    8.01778e-01      6.15447e-04      1.00000e+01      2.35573e-02
    8.16682e-01      6.04937e-04      1.00000e+01      2.39784e-02
    8.31864e-01      5.94413e-04      1.00000e+01      2.44051e-02
    8.47327e-01      5.83870e-04      1.00000e+01      2.48401e-02
    8.63079e-01      5.73324e-04      1.00000e+01      2.52870e-02
    8.79123e-01      5.62841e-04      1.00000e+01      2.57425e-02
    8.95465e-01      5.52351e-04      1.00000e+01      2.62000e-02
    9.12111e-01      5.41861e-04      1.00000e+01      2.66645e-02
    9.29066e-01      5.31377e-04      1.00000e+01      2.71399e-02
    9.46337e-01      5.20913e-04      1.00000e+01      2.76234e-02
    9.63929e-01      5.10513e-04      1.00000e+01      2.81149e-02
    9.81848e-01      5.00134e-04      1.00000e+01      2.86155e-02
    1.00010e+00      4.90041e-04      1.00000e+01      2.96670e-02
    1.01869e+00      4.79928e-04      1.00000e+01      3.06307e-02
    1.03763e+00      4.69640e-04      1.00000e+01      3.11747e-02
    1.05692e+00      4.59391e-04      1.00000e+01      3.17287e-02
    1.07657e+00      4.49184e-04      1.00000e+01      3.22926e-02
    1.09658e+00      4.39028e-04      1.00000e+01      3.28645e-02
    1.11696e+00      4.28924e-04      1.00000e+01      3.34473e-02
    1.13773e+00      4.18878e-04      1.00000e+01      3.40403e-02
    1.15888e+00      4.08893e-04      1.00000e+01      3.46422e-02
    1.18042e+00      3.98970e-04      1.00000e+01      3.52492e-02
    1.20236e+00      3.89115e-04      1.00000e+01      3.58805e-02
    1.22472e+00      3.79330e-04      1.00000e+01      3.65152e-02
    1.24748e+00      3.69615e-04      1.00000e+01      3.71607e-02
    1.27067e+00      3.59971e-04      1.00000e+01      3.78174e-02
    1.29430e+00      3.50404e-04      1.00000e+01      3.84854e-02
    1.31836e+00      3.40916e-04      1.00000e+01      3.91648e-02
    1.34286e+00      3.31513e-04      1.00000e+01      3.98559e-02
    1.36783e+00      3.22225e-04      1.00000e+01      4.05584e-02
    1.39326e+00      3.13024e-04      1.00000e+01      4.12728e-02
    1.41916e+00      3.03911e-04      1.00000e+01      4.19999e-02
    1.44554e+00      2.94884e-04      1.00000e+01      4.27381e-02
    1.47241e+00      2.85987e-04      1.00000e+01      4.34936e-02
    1.49978e+00      2.77196e-04      1.00000e+01      4.42621e-02
    1.52767e+00      2.68499e-04      1.00000e+01      4.50428e-02
    1.55607e+00      2.59933e-04      1.00000e+01      4.58273e-02
    1.58499e+00      2.51481e-04      1.00000e+01      4.66318e-02
    1.61446e+00      2.43132e-04      1.00000e+01      4.74497e-02
    1.64447e+00      2.34937e-04      1.00000e+01      4.82811e-02
    1.67504e+00      2.26843e-04      1.00000e+01      4.91271e-02
    1.70618e+00      2.18905e-04      1.00000e+01      4.99871e-02
    1.73790e+00      2.11073e-04      1.00000e+01      5.08631e-02
    1.77021e+00      2.03408e-04      1.00000e+01      5.17513e-02
    1.80312e+00      1.95859e-04      1.00000e+01      5.26544e-02
    1.83664e+00      1.88466e-04      1.00000e+01      5.35733e-02
    1.87078e+00      1.81212e-04      1.00000e+01      5.45054e-02
    1.90556e+00      1.74096e-04      1.00000e+01      5.54499e-02
    1.94099e+00      1.67151e-04      1.00000e+01      5.64237e-02
    1.97707e+00      1.60349e-04      1.00000e+01      5.74059e-02
    2.01382e+00      1.54163e-04      1.00000e+01      6.02885e-02
    2.05126e+00      1.47663e-04      1.00000e+01      6.13369e-02
    2.08940e+00      1.41334e-04      1.00000e+01      6.24016e-02
    2.12824e+00      1.35165e-04      1.00000e+01      6.34841e-02
    2.16780e+00      1.29156e-04      1.00000e+01      6.45836e-02
    2.20810e+00      1.23309e-04      1.00000e+01      6.57061e-02
    2.24915e+00      1.17626e-04      1.00000e+01      6.68436e-02
    2.29097e+00      1.12111e-04      1.00000e+01      6.80000e-02
    2.33356e+00      1.06763e-04      1.00000e+01      6.91798e-02
