    Er (keV)         SM dN/dE         BG dN/dE         BSM dN/dE (events/kg/day/keV)
    5.00000e-02      1.00000e-99      1.00000e+02      -9.38341e-186
    2.24750e-01      -4.46552e+02      1.00000e+02      1.11206e-02
    3.99500e-01      -1.16748e+03      1.00000e+02      1.65092e-02
    5.74250e-01      -1.88363e+03      1.00000e+02      1.85302e-02
    7.49000e-01      -2.59514e+03      1.00000e+02      1.95812e-02
    9.23750e-01      -3.30191e+03      1.00000e+02      2.02013e-02
    1.09850e+00      -4.00409e+03      1.00000e+02      2.06024e-02
    1.27325e+00      -4.70158e+03      1.00000e+02      2.08714e-02
    1.44800e+00      -5.39451e+03      1.00000e+02      2.10584e-02
    1.62275e+00      -6.08278e+03      1.00000e+02      2.11886e-02
    1.79750e+00      -6.76655e+03      1.00000e+02      2.12795e-02
    1.97225e+00      -7.44570e+03      1.00000e+02      2.13409e-02
    2.14700e+00      -8.12037e+03      1.00000e+02      2.13807e-02
    2.32175e+00      -8.79048e+03      1.00000e+02      2.14034e-02
    2.49650e+00      -9.45615e+03      1.00000e+02      2.14128e-02
    2.67125e+00      -1.01173e+04      1.00000e+02      2.14115e-02
    2.84600e+00      -1.07740e+04      1.00000e+02      2.14016e-02
    3.02075e+00      -1.14263e+04      1.00000e+02      2.13845e-02
    3.19550e+00      -1.20742e+04      1.00000e+02      2.13615e-02
    3.37025e+00      -1.27176e+04      1.00000e+02      2.13335e-02
    3.54500e+00      -1.33568e+04      1.00000e+02      2.13014e-02
    3.71975e+00      -1.39915e+04      1.00000e+02      2.12656e-02
    3.89450e+00      -1.46219e+04      1.00000e+02      2.12268e-02
    4.06925e+00      -1.52480e+04      1.00000e+02      2.11854e-02
    4.24400e+00      -1.58698e+04      1.00000e+02      2.11416e-02
    4.41875e+00      -1.64873e+04      1.00000e+02      2.10958e-02
    4.59350e+00      -1.71006e+04      1.00000e+02      2.10483e-02
    4.76825e+00      -1.77096e+04      1.00000e+02      2.09993e-02
    4.94300e+00      -1.83144e+04      1.00000e+02      2.09489e-02
    5.11775e+00      -1.89150e+04      1.00000e+02      2.08973e-02
    5.29250e+00      -1.95114e+04      1.00000e+02      2.08447e-02
    5.46725e+00      -2.01037e+04      1.00000e+02      2.07912e-02
    5.64200e+00      -2.06918e+04      1.00000e+02      2.07368e-02
    5.81675e+00      -2.12758e+04      1.00000e+02      2.06817e-02
    5.99150e+00      -2.18557e+04      1.00000e+02      2.06259e-02
    6.16625e+00      -2.24315e+04      1.00000e+02      2.05696e-02
    6.34100e+00      -2.30032e+04      1.00000e+02      2.05127e-02
    6.51575e+00      -2.35709e+04      1.00000e+02      2.04554e-02
    6.69050e+00      -2.41345e+04      1.00000e+02      2.03977e-02
    6.86525e+00      -2.46942e+04      1.00000e+02      2.03396e-02
    7.04000e+00      -2.52498e+04      1.00000e+02      2.02812e-02
    7.21475e+00      -2.58014e+04      1.00000e+02      2.02225e-02
    7.38950e+00      -2.63492e+04      1.00000e+02      2.01636e-02
    7.56425e+00      -2.68929e+04      1.00000e+02      2.01044e-02
    7.73900e+00      -2.74327e+04      1.00000e+02      2.00451e-02
    7.91375e+00      -2.79687e+04      1.00000e+02      1.99856e-02
    8.08850e+00      -2.85007e+04      1.00000e+02      1.99259e-02
    8.26325e+00      -2.90289e+04      1.00000e+02      1.98662e-02
    8.43800e+00      -2.95532e+04      1.00000e+02      1.98063e-02
    8.61275e+00      -3.00737e+04      1.00000e+02      1.97464e-02
    8.78750e+00      -3.05903e+04      1.00000e+02      1.96864e-02
    8.96225e+00      -3.11032e+04      1.00000e+02      1.96263e-02
    9.13700e+00      -3.16123e+04      1.00000e+02      1.95662e-02
    9.31175e+00      -3.21176e+04      1.00000e+02      1.95061e-02
    9.48650e+00      -3.26192e+04      1.00000e+02      1.94459e-02
    9.66125e+00      -3.31170e+04      1.00000e+02      1.93858e-02
    9.83600e+00      -3.36111e+04      1.00000e+02      1.93257e-02
    1.00108e+01      -3.41016e+04      1.00000e+02      1.92656e-02
    1.01855e+01      -3.45883e+04      1.00000e+02      1.92055e-02
    1.03603e+01      -3.50714e+04      1.00000e+02      1.91454e-02
    1.05350e+01      -3.55509e+04      1.00000e+02      1.90854e-02
    1.07098e+01      -3.60267e+04      1.00000e+02      1.90254e-02
    1.08845e+01      -3.64989e+04      1.00000e+02      1.89655e-02
    1.10593e+01      -3.69675e+04      1.00000e+02      1.89056e-02
    1.12340e+01      -3.74326e+04      1.00000e+02      1.88458e-02
    1.14088e+01      -3.78940e+04      1.00000e+02      1.87861e-02
    1.15835e+01      -3.83520e+04      1.00000e+02      1.87265e-02
    1.17583e+01      -3.88064e+04      1.00000e+02      1.86669e-02
    1.19330e+01      -3.92573e+04      1.00000e+02      1.86074e-02
    1.21078e+01      -3.97047e+04      1.00000e+02      1.85480e-02
    1.22825e+01      -4.01486e+04      1.00000e+02      1.84887e-02
    1.24573e+01      -4.05890e+04      1.00000e+02      1.84295e-02
    1.26320e+01      -4.10261e+04      1.00000e+02      1.83704e-02
    1.28068e+01      -4.14597e+04      1.00000e+02      1.83114e-02
    1.29815e+01      -4.18899e+04      1.00000e+02      1.82525e-02
    1.31563e+01      -4.23166e+04      1.00000e+02      1.81937e-02
    1.33310e+01      -4.27400e+04      1.00000e+02      1.81350e-02
    1.35058e+01      -4.31600e+04      1.00000e+02      1.80765e-02
    1.36805e+01      -4.35767e+04      1.00000e+02      1.80180e-02
    1.38553e+01      -4.39901e+04      1.00000e+02      1.79597e-02
    1.40300e+01      -4.44001e+04      1.00000e+02      1.79015e-02
    1.42048e+01      -4.48068e+04      1.00000e+02      1.78434e-02
    1.43795e+01      -4.52103e+04      1.00000e+02      1.77854e-02
    1.45543e+01      -4.56105e+04      1.00000e+02      1.77275e-02
    1.47290e+01      -4.60074e+04      1.00000e+02      1.76698e-02
    1.49038e+01      -4.64010e+04      1.00000e+02      1.76122e-02
    1.50785e+01      -4.67915e+04      1.00000e+02      1.75547e-02
    1.52533e+01      -4.71787e+04      1.00000e+02      1.74974e-02
    1.54280e+01      -4.75628e+04      1.00000e+02      1.74402e-02
    1.56028e+01      -4.79437e+04      1.00000e+02      1.73831e-02
    1.57775e+01      -4.83214e+04      1.00000e+02      1.73261e-02
    1.59523e+01      -4.86959e+04      1.00000e+02      1.72693e-02
    1.61270e+01      -4.90674e+04      1.00000e+02      1.72126e-02
    1.63018e+01      -4.94357e+04      1.00000e+02      1.71561e-02
    1.64765e+01      -4.98009e+04      1.00000e+02      1.70997e-02
    1.66513e+01      -5.01630e+04      1.00000e+02      1.70434e-02
    1.68260e+01      -5.05221e+04      1.00000e+02      1.69873e-02
    1.70008e+01      -5.08781e+04      1.00000e+02      1.69313e-02
    1.71755e+01      -5.12310e+04      1.00000e+02      1.68754e-02
    1.73503e+01      -5.15809e+04      1.00000e+02      1.68197e-02
    1.75250e+01      -5.19278e+04      1.00000e+02      1.67641e-02
    1.76998e+01      -5.22717e+04      1.00000e+02      1.67087e-02
    1.78745e+01      -5.26127e+04      1.00000e+02      1.66534e-02
    1.80493e+01      -5.29506e+04      1.00000e+02      1.65982e-02
    1.82240e+01      -5.32856e+04      1.00000e+02      1.65432e-02
    1.83988e+01      -5.36176e+04      1.00000e+02      1.64884e-02
    1.85735e+01      -5.39468e+04      1.00000e+02      1.64336e-02
    1.87483e+01      -5.42730e+04      1.00000e+02      1.63791e-02
    1.89230e+01      -5.45963e+04      1.00000e+02      1.63246e-02
    1.90978e+01      -5.49167e+04      1.00000e+02      1.62703e-02
    1.92725e+01      -5.52343e+04      1.00000e+02      1.62162e-02
    1.94473e+01      -5.55489e+04      1.00000e+02      1.61622e-02
    1.96220e+01      -5.58608e+04      1.00000e+02      1.61083e-02
    1.97968e+01      -5.61698e+04      1.00000e+02      1.60546e-02
    1.99715e+01      -5.64761e+04      1.00000e+02      1.60010e-02
    2.01463e+01      -5.67794e+04      1.00000e+02      1.59476e-02
    2.03210e+01      -5.70801e+04      1.00000e+02      1.58943e-02
    2.04958e+01      -5.73779e+04      1.00000e+02      1.58411e-02
    2.06705e+01      -5.76730e+04      1.00000e+02      1.57881e-02
    2.08453e+01      -5.79653e+04      1.00000e+02      1.57353e-02
    2.10200e+01      -5.82550e+04      1.00000e+02      1.56826e-02
    2.11948e+01      -5.85418e+04      1.00000e+02      1.56300e-02
    2.13695e+01      -5.88260e+04      1.00000e+02      1.55776e-02
    2.15443e+01      -5.91075e+04      1.00000e+02      1.55253e-02
    2.17190e+01      -5.93864e+04      1.00000e+02      1.54732e-02
    2.18938e+01      -5.96625e+04      1.00000e+02      1.54212e-02
    2.20685e+01      -5.99360e+04      1.00000e+02      1.53693e-02
    2.22433e+01      -6.02068e+04      1.00000e+02      1.53176e-02
    2.24180e+01      -6.04751e+04      1.00000e+02      1.52661e-02
    2.25928e+01      -6.07407e+04      1.00000e+02      1.52147e-02
    2.27675e+01      -6.10037e+04      1.00000e+02      1.51634e-02
    2.29423e+01      -6.12641e+04      1.00000e+02      1.51123e-02
    2.31170e+01      -6.15220e+04      1.00000e+02      1.50613e-02
    2.32918e+01      -6.17773e+04      1.00000e+02      1.50105e-02
    2.34665e+01      -6.20300e+04      1.00000e+02      1.49598e-02
    2.36413e+01      -6.22802e+04      1.00000e+02      1.49093e-02
    2.38160e+01      -6.25279e+04      1.00000e+02      1.48589e-02
    2.39908e+01      -6.27731e+04      1.00000e+02      1.48086e-02
    2.41655e+01      -6.30158e+04      1.00000e+02      1.47585e-02
    2.43403e+01      -6.32560e+04      1.00000e+02      1.47085e-02
    2.45150e+01      -6.34937e+04      1.00000e+02      1.46587e-02
    2.46898e+01      -6.37290e+04      1.00000e+02      1.46090e-02
    2.48645e+01      -6.39618e+04      1.00000e+02      1.45595e-02
    2.50393e+01      -6.41922e+04      1.00000e+02      1.45101e-02
    2.52140e+01      -6.44202e+04      1.00000e+02      1.44608e-02
    2.53888e+01      -6.46457e+04      1.00000e+02      1.44117e-02
    2.55635e+01      -6.48689e+04      1.00000e+02      1.43627e-02
    2.57383e+01      -6.50896e+04      1.00000e+02      1.43139e-02
    2.59130e+01      -6.53081e+04      1.00000e+02      1.42652e-02
    2.60878e+01      -6.55241e+04      1.00000e+02      1.42166e-02
    2.62625e+01      -6.57378e+04      1.00000e+02      1.41682e-02
    2.64373e+01      -6.59491e+04      1.00000e+02      1.41199e-02
    2.66120e+01      -6.61582e+04      1.00000e+02      1.40718e-02
    2.67868e+01      -6.63649e+04      1.00000e+02      1.40238e-02
    2.69615e+01      -6.65693e+04      1.00000e+02      1.39760e-02
    2.71363e+01      -6.67714e+04      1.00000e+02      1.39283e-02
    2.73110e+01      -6.69713e+04      1.00000e+02      1.38807e-02
    2.74858e+01      -6.71689e+04      1.00000e+02      1.38333e-02
    2.76605e+01      -6.73642e+04      1.00000e+02      1.37860e-02
    2.78353e+01      -6.75573e+04      1.00000e+02      1.37388e-02
    2.80100e+01      -6.77481e+04      1.00000e+02      1.36918e-02
    2.81848e+01      -6.79368e+04      1.00000e+02      1.36449e-02
    2.83595e+01      -6.81232e+04      1.00000e+02      1.35982e-02
    2.85343e+01      -6.83074e+04      1.00000e+02      1.35516e-02
    2.87090e+01      -6.84895e+04      1.00000e+02      1.35051e-02
    2.88838e+01      -6.86694e+04      1.00000e+02      1.34588e-02
    2.90585e+01      -6.88471e+04      1.00000e+02      1.34126e-02
    2.92333e+01      -6.90227e+04      1.00000e+02      1.33666e-02
    2.94080e+01      -6.91961e+04      1.00000e+02      1.33206e-02
    2.95828e+01      -6.93674e+04      1.00000e+02      1.32749e-02
    2.97575e+01      -6.95366e+04      1.00000e+02      1.32292e-02
    2.99323e+01      -6.97037e+04      1.00000e+02      1.31837e-02
    3.01070e+01      -6.98687e+04      1.00000e+02      1.31383e-02
    3.02818e+01      -7.00316e+04      1.00000e+02      1.30931e-02
    3.04565e+01      -7.01924e+04      1.00000e+02      1.30480e-02
    3.06313e+01      -7.03512e+04      1.00000e+02      1.30030e-02
    3.08060e+01      -7.05079e+04      1.00000e+02      1.29582e-02
    3.09808e+01      -7.06626e+04      1.00000e+02      1.29135e-02
    3.11555e+01      -7.08152e+04      1.00000e+02      1.28689e-02
    3.13303e+01      -7.09659e+04      1.00000e+02      1.28245e-02
    3.15050e+01      -7.11145e+04      1.00000e+02      1.27802e-02
    3.16798e+01      -7.12611e+04      1.00000e+02      1.27360e-02
    3.18545e+01      -7.14058e+04      1.00000e+02      1.26920e-02
    3.20293e+01      -7.15485e+04      1.00000e+02      1.26481e-02
    3.22040e+01      -7.16892e+04      1.00000e+02      1.26043e-02
    3.23788e+01      -7.18279e+04      1.00000e+02      1.25607e-02
    3.25535e+01      -7.19648e+04      1.00000e+02      1.25171e-02
    3.27283e+01      -7.20996e+04      1.00000e+02      1.24738e-02
    3.29030e+01      -7.22326e+04      1.00000e+02      1.24305e-02
    3.30778e+01      -7.23636e+04      1.00000e+02      1.23874e-02
    3.32525e+01      -7.24928e+04      1.00000e+02      1.23444e-02
    3.34273e+01      -7.26200e+04      1.00000e+02      1.23015e-02
    3.36020e+01      -7.27454e+04      1.00000e+02      1.22588e-02
    3.37767e+01      -7.28689e+04      1.00000e+02      1.22162e-02
    3.39515e+01      -7.29906e+04      1.00000e+02      1.21737e-02
    3.41262e+01      -7.31104e+04      1.00000e+02      1.21314e-02
    3.43010e+01      -7.32283e+04      1.00000e+02      1.20892e-02
    3.44757e+01      -7.33444e+04      1.00000e+02      1.20471e-02
    3.46505e+01      -7.34588e+04      1.00000e+02      1.20051e-02
    3.48252e+01      -7.35712e+04      1.00000e+02      1.19633e-02
    3.50000e+01      -7.36819e+04      1.00000e+02      1.19216e-02
