    Er (keV)         SM dN/dE         BG dN/dE        BSM dN/dE (events/kg/day/keV)
    1.00100e-01      2.05887e-03      1.00000e+01      -1.68348e-04
    1.01306e-01      2.01932e-03      1.00000e+01      -1.64646e-04
    1.02526e-01      1.97929e-03      1.00000e+01      -1.60899e-04
    1.03760e-01      1.93878e-03      1.00000e+01      -1.57106e-04
    1.05010e-01      1.89778e-03      1.00000e+01      -1.53268e-04
    1.06275e-01      1.85629e-03      1.00000e+01      -1.49384e-04
    1.07555e-01      1.81430e-03      1.00000e+01      -1.45453e-04
    1.08850e-01      1.77180e-03      1.00000e+01      -1.41475e-04
    1.10161e-01      1.72878e-03      1.00000e+01      -1.37448e-04
    1.11488e-01      1.68525e-03      1.00000e+01      -1.33373e-04
    1.12830e-01      1.64120e-03      1.00000e+01      -1.29249e-04
    1.14189e-01      1.59661e-03      1.00000e+01      -1.25075e-04
    1.15565e-01      1.55149e-03      1.00000e+01      -1.20851e-04
    1.16957e-01      1.50582e-03      1.00000e+01      -1.16576e-04
    1.18365e-01      1.45960e-03      1.00000e+01      -1.12250e-04
    1.19791e-01      1.41282e-03      1.00000e+01      -1.07871e-04
    1.21234e-01      1.36548e-03      1.00000e+01      -1.03439e-04
    1.22694e-01      1.31757e-03      1.00000e+01      -9.89544e-05
    1.24172e-01      1.26909e-03      1.00000e+01      -9.44154e-05
    1.25668e-01      1.22001e-03      1.00000e+01      -8.98217e-05
    1.27182e-01      1.17035e-03      1.00000e+01      -8.51726e-05
    1.28713e-01      1.12009e-03      1.00000e+01      -8.04675e-05
    1.30264e-01      1.06922e-03      1.00000e+01      -7.57056e-05
    1.31833e-01      1.01774e-03      1.00000e+01      -7.08863e-05
    1.33421e-01      9.65633e-04      1.00000e+01      -6.60090e-05
    1.35028e-01      9.12902e-04      1.00000e+01      -6.10728e-05
    1.36655e-01      8.59536e-04      1.00000e+01      -5.60771e-05
    1.38301e-01      8.05526e-04      1.00000e+01      -5.10212e-05
    1.39967e-01      7.50865e-04      1.00000e+01      -4.59044e-05
    1.41653e-01      7.21555e-04      1.00000e+01      -4.36629e-05
    1.43360e-01      6.98442e-04      1.00000e+01      -4.21342e-05
    1.45087e-01      6.75050e-04      1.00000e+01      -4.05870e-05
    1.46834e-01      6.51376e-04      1.00000e+01      -3.90211e-05
    1.48603e-01      6.27417e-04      1.00000e+01      -3.74364e-05
    1.50393e-01      6.03169e-04      1.00000e+01      -3.58326e-05
    1.52205e-01      5.78629e-04      1.00000e+01      -3.42095e-05
    1.54039e-01      5.53793e-04      1.00000e+01      -3.25668e-05
    1.55895e-01      5.28657e-04      1.00000e+01      -3.09042e-05
    1.57773e-01      5.03219e-04      1.00000e+01      -2.92217e-05
    1.59673e-01      4.77473e-04      1.00000e+01      -2.75189e-05
    1.61597e-01      4.51418e-04      1.00000e+01      -2.57955e-05
    1.63544e-01      4.25048e-04      1.00000e+01      -2.40513e-05
    1.65514e-01      3.98361e-04      1.00000e+01      -2.22862e-05
    1.67508e-01      3.71352e-04      1.00000e+01      -2.04997e-05
    1.69526e-01      3.44017e-04      1.00000e+01      -1.86917e-05
    1.71569e-01      3.16352e-04      1.00000e+01      -1.68620e-05
    1.73636e-01      2.88355e-04      1.00000e+01      -1.50101e-05
    1.75728e-01      2.60019e-04      1.00000e+01      -1.31360e-05
    1.77845e-01      2.31342e-04      1.00000e+01      -1.12392e-05
    1.79988e-01      2.02320e-04      1.00000e+01      -9.31959e-06
    1.82156e-01      1.93787e-04      1.00000e+01      -8.70310e-06
    1.84351e-01      1.93561e-04      1.00000e+01      -8.61439e-06
    1.86572e-01      1.93332e-04      1.00000e+01      -8.52462e-06
    1.88820e-01      1.93101e-04      1.00000e+01      -8.43376e-06
    1.91095e-01      1.92867e-04      1.00000e+01      -8.34180e-06
    1.93398e-01      1.92630e-04      1.00000e+01      -8.24874e-06
    1.95728e-01      1.92390e-04      1.00000e+01      -8.15455e-06
    1.98086e-01      1.92147e-04      1.00000e+01      -8.05923e-06
    2.00473e-01      1.91901e-04      1.00000e+01      -7.96277e-06
    2.02888e-01      1.91653e-04      1.00000e+01      -7.86513e-06
    2.05333e-01      1.91401e-04      1.00000e+01      -7.76633e-06
    2.07807e-01      1.91146e-04      1.00000e+01      -7.66633e-06
    2.10311e-01      1.90889e-04      1.00000e+01      -7.56512e-06
    2.12845e-01      1.90628e-04      1.00000e+01      -7.46269e-06
    2.15410e-01      1.90364e-04      1.00000e+01      -7.35903e-06
    2.18005e-01      1.90097e-04      1.00000e+01      -7.25412e-06
    2.20632e-01      1.89826e-04      1.00000e+01      -7.14795e-06
    2.23291e-01      1.89563e-04      1.00000e+01      -7.06833e-06
    2.25981e-01      1.89298e-04      1.00000e+01      -6.99102e-06
    2.28704e-01      1.89030e-04      1.00000e+01      -6.91279e-06
    2.31460e-01      1.88759e-04      1.00000e+01      -6.83361e-06
    2.34249e-01      1.88484e-04      1.00000e+01      -6.75348e-06
    2.37072e-01      1.88207e-04      1.00000e+01      -6.67238e-06
    2.39928e-01      1.87925e-04      1.00000e+01      -6.59030e-06
    2.42820e-01      1.87641e-04      1.00000e+01      -6.50723e-06
    2.45746e-01      1.87353e-04      1.00000e+01      -6.42316e-06
    2.48707e-01      1.87061e-04      1.00000e+01      -6.33808e-06
    2.51704e-01      1.86766e-04      1.00000e+01      -6.25197e-06
    2.54737e-01      1.86468e-04      1.00000e+01      -6.16483e-06
    2.57807e-01      1.86165e-04      1.00000e+01      -6.07663e-06
    2.60913e-01      1.85860e-04      1.00000e+01      -5.98737e-06
    2.64057e-01      1.85562e-04      1.00000e+01      -5.91779e-06
    2.67239e-01      1.85261e-04      1.00000e+01      -5.84958e-06
    2.70460e-01      1.84957e-04      1.00000e+01      -5.78055e-06
    2.73719e-01      1.84649e-04      1.00000e+01      -5.71069e-06
    2.77017e-01      1.84338e-04      1.00000e+01      -5.63998e-06
    2.80356e-01      1.84023e-04      1.00000e+01      -5.56842e-06
    2.83734e-01      1.83704e-04      1.00000e+01      -5.49600e-06
    2.87153e-01      1.83381e-04      1.00000e+01      -5.42270e-06
    2.90614e-01      1.83054e-04      1.00000e+01      -5.34853e-06
    2.94116e-01      1.82724e-04      1.00000e+01      -5.27345e-06
    2.97660e-01      1.82389e-04      1.00000e+01      -5.19748e-06
    3.01247e-01      1.82050e-04      1.00000e+01      -5.12058e-06
    3.04878e-01      1.81720e-04      1.00000e+01      -5.05909e-06
    3.08552e-01      1.81386e-04      1.00000e+01      -4.99818e-06
    3.12270e-01      1.81049e-04      1.00000e+01      -4.93654e-06
    3.16033e-01      1.80707e-04      1.00000e+01      -4.87415e-06
    3.19842e-01      1.80362e-04      1.00000e+01      -4.81101e-06
    3.23696e-01      1.80012e-04      1.00000e+01      -4.74710e-06
    3.27597e-01      1.79658e-04      1.00000e+01      -4.68243e-06
    3.31545e-01      1.79299e-04      1.00000e+01      -4.61698e-06
    3.35541e-01      1.78936e-04      1.00000e+01      -4.55073e-06
    3.39585e-01      1.78569e-04      1.00000e+01      -4.48369e-06
    3.43677e-01      1.78204e-04      1.00000e+01      -4.42215e-06
    3.47819e-01      1.77841e-04      1.00000e+01      -4.36753e-06
    3.52011e-01      1.77474e-04      1.00000e+01      -4.31226e-06
    3.56253e-01      1.77103e-04      1.00000e+01      -4.25631e-06
    3.60547e-01      1.76727e-04      1.00000e+01      -4.19970e-06
    3.64892e-01      1.76347e-04      1.00000e+01      -4.14240e-06
    3.69289e-01      1.75962e-04      1.00000e+01      -4.08441e-06
    3.73740e-01      1.75572e-04      1.00000e+01      -4.02572e-06
    3.78244e-01      1.75178e-04      1.00000e+01      -3.96632e-06
    3.82803e-01      1.74781e-04      1.00000e+01      -3.90789e-06
    3.87416e-01      1.74391e-04      1.00000e+01      -3.85842e-06
    3.92085e-01      1.73997e-04      1.00000e+01      -3.80835e-06
    3.96811e-01      1.73598e-04      1.00000e+01      -3.75768e-06
    4.01593e-01      1.73194e-04      1.00000e+01      -3.70640e-06
    4.06433e-01      1.72785e-04      1.00000e+01      -3.65450e-06
    4.11331e-01      1.72371e-04      1.00000e+01      -3.60198e-06
    4.16289e-01      1.71952e-04      1.00000e+01      -3.54882e-06
    4.21306e-01      1.71529e-04      1.00000e+01      -3.49502e-06
    4.26383e-01      1.71111e-04      1.00000e+01      -3.44787e-06
    4.31522e-01      1.70691e-04      1.00000e+01      -3.40224e-06
    4.36723e-01      1.70266e-04      1.00000e+01      -3.35605e-06
    4.41987e-01      1.69836e-04      1.00000e+01      -3.30931e-06
    4.47314e-01      1.69401e-04      1.00000e+01      -3.26201e-06
    4.52705e-01      1.68960e-04      1.00000e+01      -3.21414e-06
    4.58161e-01      1.68515e-04      1.00000e+01      -3.16568e-06
    4.63683e-01      1.68066e-04      1.00000e+01      -3.11800e-06
    4.69271e-01      1.67624e-04      1.00000e+01      -3.07627e-06
    4.74927e-01      1.67176e-04      1.00000e+01      -3.03404e-06
    4.80651e-01      1.66723e-04      1.00000e+01      -2.99130e-06
    4.86444e-01      1.66265e-04      1.00000e+01      -2.94805e-06
    4.92307e-01      1.65801e-04      1.00000e+01      -2.90427e-06
    4.98241e-01      1.65331e-04      1.00000e+01      -2.85997e-06
    5.04246e-01      1.64859e-04      1.00000e+01      -2.81648e-06
    5.10323e-01      1.64392e-04      1.00000e+01      -2.77784e-06
    5.16474e-01      1.63920e-04      1.00000e+01      -2.73873e-06
    5.22699e-01      1.63443e-04      1.00000e+01      -2.69915e-06
    5.28999e-01      1.62959e-04      1.00000e+01      -2.65909e-06
    5.35375e-01      1.62470e-04      1.00000e+01      -2.61856e-06
    5.41828e-01      1.61975e-04      1.00000e+01      -2.57753e-06
    5.48358e-01      1.61486e-04      1.00000e+01      -2.54046e-06
    5.54967e-01      1.60994e-04      1.00000e+01      -2.50430e-06
    5.61656e-01      1.60497e-04      1.00000e+01      -2.46770e-06
    5.68426e-01      1.59994e-04      1.00000e+01      -2.43066e-06
    5.75277e-01      1.59484e-04      1.00000e+01      -2.39317e-06
    5.82211e-01      1.58969e-04      1.00000e+01      -2.35523e-06
    5.89228e-01      1.58459e-04      1.00000e+01      -2.32084e-06
    5.96330e-01      1.57946e-04      1.00000e+01      -2.28707e-06
    6.03518e-01      1.57427e-04      1.00000e+01      -2.25289e-06
    6.10792e-01      1.56902e-04      1.00000e+01      -2.21830e-06
    6.18154e-01      1.56370e-04      1.00000e+01      -2.18329e-06
    6.25604e-01      1.55836e-04      1.00000e+01      -2.14884e-06
    6.33145e-01      1.55306e-04      1.00000e+01      -2.11742e-06
    6.40776e-01      1.54770e-04      1.00000e+01      -2.08563e-06
    6.48500e-01      1.54228e-04      1.00000e+01      -2.05344e-06
    6.56316e-01      1.53679e-04      1.00000e+01      -2.02087e-06
    6.64227e-01      1.53124e-04      1.00000e+01      -1.98791e-06
    6.72233e-01      1.52577e-04      1.00000e+01      -1.95846e-06
    6.80335e-01      1.52024e-04      1.00000e+01      -1.92866e-06
    6.88536e-01      1.51464e-04      1.00000e+01      -1.89850e-06
    6.96835e-01      1.50897e-04      1.00000e+01      -1.86797e-06
    7.05234e-01      1.50325e-04      1.00000e+01      -1.83737e-06
    7.13734e-01      1.49760e-04      1.00000e+01      -1.80959e-06
    7.22337e-01      1.49188e-04      1.00000e+01      -1.78149e-06
    7.31044e-01      1.48609e-04      1.00000e+01      -1.75304e-06
    7.39855e-01      1.48024e-04      1.00000e+01      -1.72426e-06
    7.48773e-01      1.47438e-04      1.00000e+01      -1.69649e-06
    7.57798e-01      1.46854e-04      1.00000e+01      -1.67015e-06
    7.66932e-01      1.46263e-04      1.00000e+01      -1.64349e-06
    7.76176e-01      1.45666e-04      1.00000e+01      -1.61651e-06
    7.85532e-01      1.45061e-04      1.00000e+01      -1.58932e-06
    7.95000e-01      1.44464e-04      1.00000e+01      -1.56450e-06
    8.04583e-01      1.43860e-04      1.00000e+01      -1.53938e-06
    8.14281e-01      1.43249e-04      1.00000e+01      -1.51396e-06
    8.24096e-01      1.42630e-04      1.00000e+01      -1.48823e-06
    8.34029e-01      1.42018e-04      1.00000e+01      -1.46439e-06
    8.44082e-01      1.41400e-04      1.00000e+01      -1.44062e-06
    8.54257e-01      1.40775e-04      1.00000e+01      -1.41656e-06
    8.64553e-01      1.40143e-04      1.00000e+01      -1.39221e-06
    8.74974e-01      1.39517e-04      1.00000e+01      -1.36961e-06
    8.85521e-01      1.38886e-04      1.00000e+01      -1.34701e-06
    8.96195e-01      1.38246e-04      1.00000e+01      -1.32414e-06
    9.06997e-01      1.37601e-04      1.00000e+01      -1.30117e-06
    9.17930e-01      1.36962e-04      1.00000e+01      -1.27986e-06
    9.28994e-01      1.36315e-04      1.00000e+01      -1.25829e-06
    9.40192e-01      1.35661e-04      1.00000e+01      -1.23646e-06
    9.51525e-01      1.35006e-04      1.00000e+01      -1.21525e-06
    9.62994e-01      1.34351e-04      1.00000e+01      -1.19483e-06
    9.74602e-01      1.33689e-04      1.00000e+01      -1.17418e-06
    9.86350e-01      1.33019e-04      1.00000e+01      -1.15327e-06
    9.98239e-01      1.32356e-04      1.00000e+01      -1.13384e-06
    1.01027e+00      1.31686e-04      1.00000e+01      -1.11423e-06
    1.02245e+00      1.31008e-04      1.00000e+01      -1.09438e-06
    1.03477e+00      1.30332e-04      1.00000e+01      -1.07533e-06
    1.04725e+00      1.29655e-04      1.00000e+01      -1.05666e-06
    1.05987e+00      1.28968e-04      1.00000e+01      -1.03777e-06
    1.07265e+00      1.28281e-04      1.00000e+01      -1.01928e-06
    1.08558e+00      1.27594e-04      1.00000e+01      -1.00144e-06
    1.09866e+00      1.26899e-04      1.00000e+01      -9.83397e-07
    1.11190e+00      1.26201e-04      1.00000e+01      -9.65589e-07
    1.12531e+00      1.25505e-04      1.00000e+01      -9.48515e-07
    1.13887e+00      1.24800e-04      1.00000e+01      -9.31235e-07
    1.15260e+00      1.24093e-04      1.00000e+01      -9.14194e-07
    1.16649e+00      1.23388e-04      1.00000e+01      -8.97809e-07
    1.18055e+00      1.22674e-04      1.00000e+01      -8.81227e-07
    1.19478e+00      1.21960e-04      1.00000e+01      -8.65008e-07
    1.20919e+00      1.21245e-04      1.00000e+01      -8.49250e-07
    1.22376e+00      1.20522e-04      1.00000e+01      -8.33303e-07
    1.23851e+00      1.19801e-04      1.00000e+01      -8.17937e-07
    1.25344e+00      1.19078e-04      1.00000e+01      -8.02754e-07
    1.26855e+00      1.18345e-04      1.00000e+01      -7.87388e-07
    1.28384e+00      1.17619e-04      1.00000e+01      -7.72880e-07
    1.29932e+00      1.16885e-04      1.00000e+01      -7.58214e-07
    1.31498e+00      1.16148e-04      1.00000e+01      -7.43743e-07
    1.33083e+00      1.15412e-04      1.00000e+01      -7.29723e-07
    1.34687e+00      1.14667e-04      1.00000e+01      -7.15534e-07
    1.36311e+00      1.13927e-04      1.00000e+01      -7.01964e-07
    1.37954e+00      1.13180e-04      1.00000e+01      -6.88379e-07
    1.39617e+00      1.12431e-04      1.00000e+01      -6.74967e-07
    1.41300e+00      1.11681e-04      1.00000e+01      -6.61928e-07
    1.43003e+00      1.10923e-04      1.00000e+01      -6.48734e-07
    1.44727e+00      1.10172e-04      1.00000e+01      -6.36211e-07
    1.46471e+00      1.09412e-04      1.00000e+01      -6.23537e-07
    1.48237e+00      1.08654e-04      1.00000e+01      -6.11245e-07
    1.50024e+00      1.07892e-04      1.00000e+01      -5.99055e-07
    1.51832e+00      1.07128e-04      1.00000e+01      -5.87032e-07
    1.53662e+00      1.06364e-04      1.00000e+01      -5.75293e-07
    1.55515e+00      1.05594e-04      1.00000e+01      -5.63570e-07
    1.57389e+00      1.04828e-04      1.00000e+01      -5.52244e-07
    1.59287e+00      1.04053e-04      1.00000e+01      -5.40839e-07
    1.61207e+00      1.03284e-04      1.00000e+01      -5.29901e-07
    1.63150e+00      1.02506e-04      1.00000e+01      -5.18831e-07
    1.65116e+00      1.01734e-04      1.00000e+01      -5.08253e-07
    1.67107e+00      1.00952e-04      1.00000e+01      -4.97549e-07
    1.69121e+00      1.00177e-04      1.00000e+01      -4.87287e-07
    1.71160e+00      9.93920e-05      1.00000e+01      -4.76924e-07
    1.73223e+00      9.86136e-05      1.00000e+01      -4.66989e-07
    1.75311e+00      9.78268e-05      1.00000e+01      -4.56965e-07
    1.77424e+00      9.70455e-05      1.00000e+01      -4.47341e-07
    1.79563e+00      9.62569e-05      1.00000e+01      -4.37669e-07
    1.81728e+00      9.54726e-05      1.00000e+01      -4.28326e-07
    1.83918e+00      9.46832e-05      1.00000e+01      -4.19005e-07
    1.86135e+00      9.38954e-05      1.00000e+01      -4.09924e-07
    1.88379e+00      9.31052e-05      1.00000e+01      -4.00948e-07
    1.90650e+00      9.23139e-05      1.00000e+01      -3.92114e-07
    1.92948e+00      9.15238e-05      1.00000e+01      -3.83480e-07
    1.95274e+00      9.07292e-05      1.00000e+01      -3.74882e-07
    1.97628e+00      8.99404e-05      1.00000e+01      -3.66587e-07
    2.00010e+00      8.91465e-05      1.00000e+01      -3.58312e-07
    2.02421e+00      8.83543e-05      1.00000e+01      -3.50242e-07
    2.04861e+00      8.75612e-05      1.00000e+01      -3.42298e-07
    2.07331e+00      8.67650e-05      1.00000e+01      -3.34423e-07
    2.09830e+00      8.59733e-05      1.00000e+01      -3.26801e-07
    2.12359e+00      8.51778e-05      1.00000e+01      -3.19228e-07
    2.14919e+00      8.43826e-05      1.00000e+01      -3.11801e-07
    2.17510e+00      8.35901e-05      1.00000e+01      -3.04546e-07
    2.20132e+00      8.27954e-05      1.00000e+01      -2.97359e-07
    2.22785e+00      8.20036e-05      1.00000e+01      -2.90347e-07
    2.25471e+00      8.12121e-05      1.00000e+01      -2.83467e-07
    2.28189e+00      8.04183e-05      1.00000e+01      -2.76660e-07
    2.30940e+00      7.96263e-05      1.00000e+01      -2.70010e-07
    2.33723e+00      7.88360e-05      1.00000e+01      -2.63496e-07
    2.36541e+00      7.80447e-05      1.00000e+01      -2.57064e-07
    2.39392e+00      7.72544e-05      1.00000e+01      -2.50753e-07
    2.42278e+00      7.64671e-05      1.00000e+01      -2.44601e-07
    2.45198e+00      7.56788e-05      1.00000e+01      -2.38532e-07
    2.48154e+00      7.48900e-05      1.00000e+01      -2.32552e-07
    2.51146e+00      7.41053e-05      1.00000e+01      -2.26723e-07
    2.54173e+00      7.33226e-05      1.00000e+01      -2.21011e-07
    2.57237e+00      7.25403e-05      1.00000e+01      -2.15390e-07
    2.60338e+00      7.17588e-05      1.00000e+01      -2.09861e-07
    2.63476e+00      7.09800e-05      1.00000e+01      -2.04458e-07
    2.66652e+00      7.02040e-05      1.00000e+01      -1.99174e-07
    2.69867e+00      6.94290e-05      1.00000e+01      -1.93980e-07
    2.73120e+00      6.86553e-05      1.00000e+01      -1.88879e-07
    2.76412e+00      6.78827e-05      1.00000e+01      -1.83870e-07
    2.79744e+00      6.71124e-05      1.00000e+01      -1.78970e-07
    2.83116e+00      6.63459e-05      1.00000e+01      -1.74184e-07
    2.86529e+00      6.55818e-05      1.00000e+01      -1.69490e-07
    2.89983e+00      6.48196e-05      1.00000e+01      -1.64885e-07
    2.93479e+00      6.40596e-05      1.00000e+01      -1.60370e-07
    2.97017e+00      6.33025e-05      1.00000e+01      -1.55947e-07
    3.00597e+00      6.25481e-05      1.00000e+01      -1.51613e-07
    3.04220e+00      6.17965e-05      1.00000e+01      -1.47369e-07
    3.07888e+00      6.10491e-05      1.00000e+01      -1.43228e-07
    3.11599e+00      6.03043e-05      1.00000e+01      -1.39170e-07
    3.15355e+00      5.95633e-05      1.00000e+01      -1.35200e-07
    3.19157e+00      5.88259e-05      1.00000e+01      -1.31314e-07
    3.23004e+00      5.80917e-05      1.00000e+01      -1.27511e-07
    3.26898e+00      5.73606e-05      1.00000e+01      -1.23788e-07
