    Er (keV)         SM dN/dE         BG dN/dE        BSM dN/dE (events/kg/day/keV)
    1.01000e-02      2.49349e+02      1.00000e+01      9.84525e+01
    1.02859e-02      2.48445e+02      1.00000e+01      9.84525e+01
    1.04753e-02      2.47525e+02      1.00000e+01      9.84524e+01
    1.06682e-02      2.46587e+02      1.00000e+01      9.84524e+01
    1.08647e-02      2.45632e+02      1.00000e+01      9.84523e+01
    1.10648e-02      2.44660e+02      1.00000e+01      9.84523e+01
    1.12686e-02      2.43669e+02      1.00000e+01      9.84523e+01
    1.14763e-02      2.42660e+02      1.00000e+01      9.84522e+01
    1.16878e-02      2.41632e+02      1.00000e+01      9.84522e+01
    1.19032e-02      2.40585e+02      1.00000e+01      9.84521e+01
    1.21226e-02      2.39518e+02      1.00000e+01      9.84521e+01
    1.23462e-02      2.38432e+02      1.00000e+01      9.84520e+01
    1.25738e-02      2.37325e+02      1.00000e+01      9.84520e+01
    1.28057e-02      2.36198e+02      1.00000e+01      9.84519e+01
    1.30420e-02      2.35050e+02      1.00000e+01      9.84519e+01
    1.32826e-02      2.33880e+02      1.00000e+01      9.84518e+01
    1.35276e-02      2.32689e+02      1.00000e+01      9.84518e+01
    1.37773e-02      2.31476e+02      1.00000e+01      9.84517e+01
    1.40316e-02      2.30240e+02      1.00000e+01      9.84516e+01
    1.42906e-02      2.28981e+02      1.00000e+01      9.84516e+01
    1.45544e-02      2.27699e+02      1.00000e+01      9.84515e+01
    1.48231e-02      2.26392e+02      1.00000e+01      9.84515e+01
    1.50968e-02      2.25062e+02      1.00000e+01      9.84514e+01
    1.53757e-02      2.23707e+02      1.00000e+01      9.84514e+01
    1.56597e-02      2.22326e+02      1.00000e+01      9.84513e+01
    1.59489e-02      2.20920e+02      1.00000e+01      9.84512e+01
    1.62436e-02      2.19488e+02      1.00000e+01      9.84512e+01
    1.65437e-02      2.18030e+02      1.00000e+01      9.84511e+01
    1.68494e-02      2.16544e+02      1.00000e+01      9.84510e+01
    1.71608e-02      2.15030e+02      1.00000e+01      9.84510e+01
    1.74780e-02      2.13488e+02      1.00000e+01      9.84509e+01
    1.78011e-02      2.11918e+02      1.00000e+01      9.84508e+01
    1.81302e-02      2.10319e+02      1.00000e+01      9.84507e+01
    1.84654e-02      2.08689e+02      1.00000e+01      9.84507e+01
    1.88068e-02      2.07030e+02      1.00000e+01      9.84506e+01
    1.91546e-02      2.05339e+02      1.00000e+01      9.84505e+01
    1.95089e-02      2.03618e+02      1.00000e+01      9.84504e+01
    1.98697e-02      2.01864e+02      1.00000e+01      9.84504e+01
    2.02372e-02      2.00077e+02      1.00000e+01      9.84503e+01
    2.06116e-02      1.98258e+02      1.00000e+01      9.84502e+01
    2.09930e-02      1.96404e+02      1.00000e+01      9.84501e+01
    2.13814e-02      1.94516e+02      1.00000e+01      9.84500e+01
    2.17770e-02      1.92593e+02      1.00000e+01      9.84499e+01
    2.21800e-02      1.90634e+02      1.00000e+01      9.84499e+01
    2.25905e-02      1.88639e+02      1.00000e+01      9.84498e+01
    2.30087e-02      1.86607e+02      1.00000e+01      9.84497e+01
    2.34346e-02      1.84537e+02      1.00000e+01      9.84496e+01
    2.38684e-02      1.82428e+02      1.00000e+01      9.84495e+01
    2.43103e-02      1.80280e+02      1.00000e+01      9.84494e+01
    2.47604e-02      1.78093e+02      1.00000e+01      9.84493e+01
    2.52189e-02      1.75864e+02      1.00000e+01      9.84492e+01
    2.56859e-02      1.73594e+02      1.00000e+01      9.84491e+01
    2.61615e-02      1.71282e+02      1.00000e+01      9.84490e+01
    2.66461e-02      1.68928e+02      1.00000e+01      9.84489e+01
    2.71396e-02      1.66529e+02      1.00000e+01      9.84488e+01
    2.76423e-02      1.64085e+02      1.00000e+01      9.84487e+01
    2.81543e-02      1.61597e+02      1.00000e+01      9.84485e+01
    2.86759e-02      1.59061e+02      1.00000e+01      9.84484e+01
    2.92072e-02      1.56479e+02      1.00000e+01      9.84483e+01
    2.97483e-02      1.53849e+02      1.00000e+01      9.84482e+01
    3.02995e-02      1.51170e+02      1.00000e+01      9.84481e+01
    3.08610e-02      1.49980e+02      1.00000e+01      9.84479e+01
    3.14329e-02      1.48862e+02      1.00000e+01      9.84478e+01
    3.20154e-02      1.47724e+02      1.00000e+01      9.84477e+01
    3.26087e-02      1.46564e+02      1.00000e+01      9.84475e+01
    3.32131e-02      1.45382e+02      1.00000e+01      9.84474e+01
    3.38287e-02      1.44179e+02      1.00000e+01      9.84472e+01
    3.44558e-02      1.42953e+02      1.00000e+01      9.84471e+01
    3.50945e-02      1.41705e+02      1.00000e+01      9.84469e+01
    3.57451e-02      1.40433e+02      1.00000e+01      9.84468e+01
    3.64078e-02      1.39137e+02      1.00000e+01      9.84466e+01
    3.70828e-02      1.37818e+02      1.00000e+01      9.84465e+01
    3.77704e-02      1.36474e+02      1.00000e+01      9.84463e+01
    3.84707e-02      1.35105e+02      1.00000e+01      9.84461e+01
    3.91841e-02      1.33710e+02      1.00000e+01      9.84460e+01
    3.99107e-02      1.32290e+02      1.00000e+01      9.84458e+01
    4.06509e-02      1.30843e+02      1.00000e+01      9.84456e+01
    4.14048e-02      1.29370e+02      1.00000e+01      9.84454e+01
    4.21727e-02      1.27868e+02      1.00000e+01      9.84453e+01
    4.29549e-02      1.26339e+02      1.00000e+01      9.84451e+01
    4.37516e-02      1.24782e+02      1.00000e+01      9.84449e+01
    4.45631e-02      1.23196e+02      1.00000e+01      9.84447e+01
    4.53898e-02      1.21580e+02      1.00000e+01      9.84445e+01
    4.62318e-02      1.19934e+02      1.00000e+01      9.84443e+01
    4.70894e-02      1.18257e+02      1.00000e+01      9.84441e+01
    4.79630e-02      1.16550e+02      1.00000e+01      9.84439e+01
    4.88528e-02      1.14810e+02      1.00000e+01      9.84437e+01
    4.97592e-02      1.13038e+02      1.00000e+01      9.84434e+01
    5.06825e-02      1.11234e+02      1.00000e+01      9.84432e+01
    5.16229e-02      1.09757e+02      1.00000e+01      9.84430e+01
    5.25807e-02      1.08636e+02      1.00000e+01      9.84428e+01
    5.35564e-02      1.07495e+02      1.00000e+01      9.84426e+01
    5.45503e-02      1.06332e+02      1.00000e+01      9.84424e+01
    5.55626e-02      1.05148e+02      1.00000e+01      9.84422e+01
    5.65937e-02      1.03941e+02      1.00000e+01      9.84419e+01
    5.76440e-02      1.02712e+02      1.00000e+01      9.84417e+01
    5.87138e-02      1.01461e+02      1.00000e+01      9.84415e+01
    5.98035e-02      1.00186e+02      1.00000e+01      9.84413e+01
    6.09135e-02      9.88874e+01      1.00000e+01      9.84410e+01
    6.20441e-02      9.75647e+01      1.00000e+01      9.84408e+01
    6.31957e-02      9.62174e+01      1.00000e+01      9.84405e+01
    6.43688e-02      9.48451e+01      1.00000e+01      9.84403e+01
    6.55636e-02      9.34472e+01      1.00000e+01      9.84400e+01
    6.67807e-02      9.20233e+01      1.00000e+01      9.84398e+01
    6.80204e-02      9.05730e+01      1.00000e+01      9.84395e+01
    6.92831e-02      8.90957e+01      1.00000e+01      9.84392e+01
    7.05693e-02      8.75909e+01      1.00000e+01      9.84389e+01
    7.18794e-02      8.60582e+01      1.00000e+01      9.84387e+01
    7.32139e-02      8.49233e+01      1.00000e+01      9.84384e+01
    7.45732e-02      8.38081e+01      1.00000e+01      9.84381e+01
    7.59578e-02      8.26721e+01      1.00000e+01      9.84378e+01
    7.73681e-02      8.15149e+01      1.00000e+01      9.84375e+01
    7.88046e-02      8.03363e+01      1.00000e+01      9.84372e+01
    8.02678e-02      7.91357e+01      1.00000e+01      9.84368e+01
    8.17582e-02      7.79128e+01      1.00000e+01      9.84365e+01
    8.32764e-02      7.66672e+01      1.00000e+01      9.84362e+01
    8.48227e-02      7.53985e+01      1.00000e+01      9.84359e+01
    8.63979e-02      7.41061e+01      1.00000e+01      9.84355e+01
    8.80023e-02      7.27897e+01      1.00000e+01      9.84352e+01
    8.96365e-02      7.14489e+01      1.00000e+01      9.84348e+01
    9.13011e-02      7.00831e+01      1.00000e+01      9.84345e+01
    9.29966e-02      6.87290e+01      1.00000e+01      9.84621e+01
    9.47237e-02      6.76857e+01      1.00000e+01      9.87431e+01
    9.64829e-02      6.66230e+01      1.00000e+01      9.90294e+01
    9.82748e-02      6.55405e+01      1.00000e+01      9.93211e+01
    1.00100e-01      6.44379e+01      1.00000e+01      9.96181e+01
    1.01959e-01      6.33148e+01      1.00000e+01      9.99207e+01
    1.03853e-01      6.21708e+01      1.00000e+01      1.00229e+02
    1.05782e-01      6.10056e+01      1.00000e+01      1.00543e+02
    1.07747e-01      5.98186e+01      1.00000e+01      1.00863e+02
    1.09748e-01      5.86097e+01      1.00000e+01      1.01188e+02
    1.11786e-01      5.73782e+01      1.00000e+01      1.01520e+02
    1.13863e-01      5.61539e+01      1.00000e+01      1.01824e+02
    1.15978e-01      5.51838e+01      1.00000e+01      1.01824e+02
    1.18132e-01      5.41957e+01      1.00000e+01      1.01823e+02
    1.20326e-01      5.31892e+01      1.00000e+01      1.01823e+02
    1.22562e-01      5.21640e+01      1.00000e+01      1.01822e+02
    1.24838e-01      5.11197e+01      1.00000e+01      1.01822e+02
    1.27157e-01      5.00561e+01      1.00000e+01      1.01821e+02
    1.29520e-01      4.89726e+01      1.00000e+01      1.01820e+02
    1.31926e-01      4.78690e+01      1.00000e+01      1.01820e+02
    1.34376e-01      4.67449e+01      1.00000e+01      1.01819e+02
    1.36873e-01      4.58409e+01      1.00000e+01      1.01819e+02
    1.39416e-01      4.49315e+01      1.00000e+01      1.01818e+02
    1.42006e-01      4.40052e+01      1.00000e+01      1.01817e+02
    1.44644e-01      4.30617e+01      1.00000e+01      1.01817e+02
    1.47331e-01      4.21006e+01      1.00000e+01      1.01816e+02
    1.50068e-01      4.11217e+01      1.00000e+01      1.01815e+02
    1.52857e-01      4.01245e+01      1.00000e+01      1.01814e+02
    1.55697e-01      3.91360e+01      1.00000e+01      1.01814e+02
    1.58589e-01      3.83094e+01      1.00000e+01      1.01813e+02
    1.61536e-01      3.74675e+01      1.00000e+01      1.01812e+02
    1.64537e-01      3.66099e+01      1.00000e+01      1.01812e+02
    1.67594e-01      3.57363e+01      1.00000e+01      1.01811e+02
    1.70708e-01      3.48465e+01      1.00000e+01      1.01810e+02
    1.73880e-01      3.39401e+01      1.00000e+01      1.01810e+02
    1.77111e-01      3.30683e+01      1.00000e+01      1.01809e+02
    1.80402e-01      3.23037e+01      1.00000e+01      1.01808e+02
    1.83754e-01      3.15249e+01      1.00000e+01      1.01807e+02
    1.87168e-01      3.07317e+01      1.00000e+01      1.01807e+02
    1.90646e-01      2.99237e+01      1.00000e+01      1.01806e+02
    1.94189e-01      2.91007e+01      1.00000e+01      1.01805e+02
    1.97797e-01      2.82956e+01      1.00000e+01      1.01804e+02
    2.01472e-01      2.75915e+01      1.00000e+01      1.01803e+02
    2.05216e-01      2.68743e+01      1.00000e+01      1.01802e+02
    2.09030e-01      2.61438e+01      1.00000e+01      1.01802e+02
    2.12914e-01      2.53997e+01      1.00000e+01      1.01801e+02
    2.16870e-01      2.46418e+01      1.00000e+01      1.01800e+02
    2.20900e-01      2.39678e+01      1.00000e+01      1.01799e+02
    2.25005e-01      2.33117e+01      1.00000e+01      1.01798e+02
    2.29187e-01      2.26434e+01      1.00000e+01      1.01797e+02
    2.33446e-01      2.19627e+01      1.00000e+01      1.01796e+02
    2.37784e-01      2.12694e+01      1.00000e+01      1.01795e+02
    2.42203e-01      2.06563e+01      1.00000e+01      1.01794e+02
    2.46704e-01      2.00549e+01      1.00000e+01      1.01793e+02
    2.51289e-01      1.94422e+01      1.00000e+01      1.01793e+02
    2.55959e-01      1.88181e+01      1.00000e+01      1.01792e+02
    2.60715e-01      1.82077e+01      1.00000e+01      1.01791e+02
    2.65561e-01      1.76589e+01      1.00000e+01      1.01789e+02
    2.70496e-01      1.70999e+01      1.00000e+01      1.01788e+02
    2.75523e-01      1.65305e+01      1.00000e+01      1.01787e+02
    2.80643e-01      1.59562e+01      1.00000e+01      1.01786e+02
    2.85859e-01      1.54530e+01      1.00000e+01      1.01784e+02
    2.91172e-01      1.49405e+01      1.00000e+01      1.01783e+02
    2.96583e-01      1.44185e+01      1.00000e+01      1.01782e+02
    3.02095e-01      1.39003e+01      1.00000e+01      1.01781e+02
    3.07710e-01      1.34378e+01      1.00000e+01      1.01780e+02
    3.13429e-01      1.29667e+01      1.00000e+01      1.01779e+02
    3.19254e-01      1.24869e+01      1.00000e+01      1.01778e+02
    3.25187e-01      1.20354e+01      1.00000e+01      1.01776e+02
    3.31231e-01      1.16076e+01      1.00000e+01      1.01775e+02
    3.37387e-01      1.11718e+01      1.00000e+01      1.01774e+02
    3.43658e-01      1.07364e+01      1.00000e+01      1.01772e+02
    3.50045e-01      1.03473e+01      1.00000e+01      1.01771e+02
    3.56551e-01      9.95091e+00      1.00000e+01      1.01769e+02
    3.63178e-01      9.54718e+00      1.00000e+01      1.01768e+02
    3.69928e-01      9.18738e+00      1.00000e+01      1.01766e+02
    3.76804e-01      8.82467e+00      1.00000e+01      1.01765e+02
    3.83807e-01      8.45521e+00      1.00000e+01      1.01763e+02
    3.90941e-01      8.12387e+00      1.00000e+01      1.01761e+02
    3.98207e-01      7.79100e+00      1.00000e+01      1.01759e+02
    4.05609e-01      7.45378e+00      1.00000e+01      1.01758e+02
    4.13148e-01      7.15241e+00      1.00000e+01      1.01756e+02
    4.20827e-01      6.84543e+00      1.00000e+01      1.01754e+02
    4.28649e-01      6.54523e+00      1.00000e+01      1.01752e+02
    4.36616e-01      6.26616e+00      1.00000e+01      1.01750e+02
    4.44731e-01      5.98191e+00      1.00000e+01      1.01748e+02
    4.52998e-01      5.71955e+00      1.00000e+01      1.01746e+02
    4.61418e-01      5.46251e+00      1.00000e+01      1.01745e+02
    4.69994e-01      5.20868e+00      1.00000e+01      1.01743e+02
    4.78730e-01      4.97359e+00      1.00000e+01      1.01741e+02
    4.87628e-01      4.73413e+00      1.00000e+01      1.01739e+02
    4.96692e-01      4.51577e+00      1.00000e+01      1.01737e+02
    5.05925e-01      4.29654e+00      1.00000e+01      1.01735e+02
    5.15329e-01      4.08999e+00      1.00000e+01      1.01732e+02
    5.24907e-01      3.88985e+00      1.00000e+01      1.01730e+02
    5.34664e-01      3.69641e+00      1.00000e+01      1.01728e+02
    5.44603e-01      3.51242e+00      1.00000e+01      1.01726e+02
    5.54726e-01      3.33250e+00      1.00000e+01      1.01724e+02
    5.65037e-01      3.16303e+00      1.00000e+01      1.01721e+02
    5.75540e-01      2.99690e+00      1.00000e+01      1.01719e+02
    5.86238e-01      2.84041e+00      1.00000e+01      1.01717e+02
    5.97135e-01      2.68793e+00      1.00000e+01      1.01714e+02
    6.08235e-01      2.54318e+00      1.00000e+01      1.01712e+02
    6.19541e-01      2.40391e+00      1.00000e+01      1.01709e+02
    6.31057e-01      2.26957e+00      1.00000e+01      1.01707e+02
    6.42788e-01      2.14294e+00      1.00000e+01      1.01704e+02
    6.54736e-01      2.01818e+00      1.00000e+01      1.01701e+02
    6.66907e-01      1.90345e+00      1.00000e+01      1.01698e+02
    6.79304e-01      1.79019e+00      1.00000e+01      1.01695e+02
    6.91931e-01      1.68364e+00      1.00000e+01      1.01692e+02
    7.04793e-01      1.58176e+00      1.00000e+01      1.01689e+02
    7.17894e-01      1.48238e+00      1.00000e+01      1.01686e+02
    7.31239e-01      1.39111e+00      1.00000e+01      1.01683e+02
    7.44832e-01      1.30239e+00      1.00000e+01      1.01680e+02
    7.58678e-01      1.21711e+00      1.00000e+01      1.01676e+02
    7.72781e-01      1.13823e+00      1.00000e+01      1.01673e+02
    7.87146e-01      1.06209e+00      1.00000e+01      1.01669e+02
    8.01778e-01      9.89001e-01      1.00000e+01      1.01665e+02
    8.16682e-01      9.21628e-01      1.00000e+01      1.01663e+02
    8.31864e-01      8.57231e-01      1.00000e+01      1.01659e+02
    8.47327e-01      7.95696e-01      1.00000e+01      1.01655e+02
    8.63079e-01      7.37357e-01      1.00000e+01      1.01652e+02
    8.79123e-01      6.83365e-01      1.00000e+01      1.01649e+02
    8.95465e-01      6.31987e-01      1.00000e+01      1.01645e+02
    9.12111e-01      5.83274e-01      1.00000e+01      1.01641e+02
    9.29066e-01      5.37237e-01      1.00000e+01      1.01637e+02
    9.46337e-01      4.93973e-01      1.00000e+01      1.01633e+02
    9.63929e-01      4.53847e-01      1.00000e+01      1.01629e+02
    9.81848e-01      4.16089e-01      1.00000e+01      1.01625e+02
    1.00010e+00      3.80655e-01      1.00000e+01      1.03495e+02
    1.01869e+00      3.47496e-01      1.00000e+01      1.05002e+02
    1.03763e+00      3.16534e-01      1.00000e+01      1.04998e+02
    1.05692e+00      2.87676e-01      1.00000e+01      1.04993e+02
    1.07657e+00      2.60868e-01      1.00000e+01      1.04988e+02
    1.09658e+00      2.36022e-01      1.00000e+01      1.04984e+02
    1.11696e+00      2.12908e-01      1.00000e+01      1.04979e+02
    1.13773e+00      1.91250e-01      1.00000e+01      1.04973e+02
    1.15888e+00      1.72124e-01      1.00000e+01      1.04968e+02
    1.18042e+00      1.53975e-01      1.00000e+01      1.04963e+02
    1.20236e+00      1.37334e-01      1.00000e+01      1.04958e+02
    1.22472e+00      1.22062e-01      1.00000e+01      1.04952e+02
    1.24748e+00      1.08092e-01      1.00000e+01      1.04947e+02
    1.27067e+00      9.53501e-02      1.00000e+01      1.04941e+02
    1.29430e+00      8.37630e-02      1.00000e+01      1.04935e+02
    1.31836e+00      7.32528e-02      1.00000e+01      1.04929e+02
    1.34286e+00      6.37639e-02      1.00000e+01      1.04923e+02
    1.36783e+00      5.53612e-02      1.00000e+01      1.04917e+02
    1.39326e+00      4.78278e-02      1.00000e+01      1.04911e+02
    1.41916e+00      4.11021e-02      1.00000e+01      1.04904e+02
    1.44554e+00      3.51158e-02      1.00000e+01      1.04898e+02
    1.47241e+00      2.98897e-02      1.00000e+01      1.04891e+02
    1.49978e+00      2.53321e-02      1.00000e+01      1.04884e+02
    1.52767e+00      2.12976e-02      1.00000e+01      1.04878e+02
    1.55607e+00      1.78291e-02      1.00000e+01      1.04870e+02
    1.58499e+00      1.48274e-02      1.00000e+01      1.04863e+02
    1.61446e+00      1.22120e-02      1.00000e+01      1.04856e+02
    1.64447e+00      1.00007e-02      1.00000e+01      1.04848e+02
    1.67504e+00      8.11578e-03      1.00000e+01      1.04841e+02
    1.70618e+00      6.59161e-03      1.00000e+01      1.04833e+02
    1.73790e+00      5.28765e-03      1.00000e+01      1.04826e+02
    1.77021e+00      4.25265e-03      1.00000e+01      1.04818e+02
    1.80312e+00      3.39773e-03      1.00000e+01      1.04809e+02
    1.83664e+00      2.74096e-03      1.00000e+01      1.04800e+02
    1.87078e+00      2.22481e-03      1.00000e+01      1.04791e+02
    1.90556e+00      1.82256e-03      1.00000e+01      1.04782e+02
    1.94099e+00      1.52051e-03      1.00000e+01      1.04773e+02
    1.97707e+00      1.28252e-03      1.00000e+01      1.04764e+02
    2.01382e+00      1.10239e-03      1.00000e+01      1.08135e+02
    2.05126e+00      9.46927e-04      1.00000e+01      1.08124e+02
    2.08940e+00      8.20282e-04      1.00000e+01      1.08114e+02
    2.12824e+00      7.16347e-04      1.00000e+01      1.08104e+02
    2.16780e+00      6.31903e-04      1.00000e+01      1.08093e+02
    2.20810e+00      5.64768e-04      1.00000e+01      1.08083e+02
    2.24915e+00      5.11865e-04      1.00000e+01      1.08072e+02
    2.29097e+00      4.70820e-04      1.00000e+01      1.08061e+02
    2.33356e+00      4.39287e-04      1.00000e+01      1.08049e+02
